DATATYPE	 IR Spectrum
XYUNITS	 Wavenumber;PercentTransmittance
DECIMALSYMBOL	 .
400.2229	 44.0417
400.6888	 45.1974
401.1547	 46.3490
401.6207	 47.4452
402.0866	 48.4482
402.5525	 49.3323
403.0184	 50.0816
403.4843	 50.6881
403.9502	 51.1496
404.4162	 51.4676
404.8821	 51.6470
405.3480	 51.6944
405.8139	 51.6182
406.2798	 51.4278
406.7457	 51.1339
407.2117	 50.7482
407.6776	 50.2839
408.1435	 49.7552
408.6094	 49.1780
409.0753	 48.5695
409.5412	 47.9481
410.0072	 47.3334
410.4731	 46.7456
410.9390	 46.2048
411.4049	 45.7301
411.8708	 45.3387
412.3367	 45.0448
412.8027	 44.8586
413.2686	 44.7850
413.7345	 44.8236
414.2004	 44.9685
414.6663	 45.2080
415.1323	 45.5259
415.5982	 45.9026
416.0641	 46.3160
416.5300	 46.7431
416.9959	 47.1616
417.4618	 47.5506
417.9278	 47.8919
418.3937	 48.1704
418.8596	 48.3745
419.3255	 48.4966
419.7914	 48.5326
420.2573	 48.4822
420.7233	 48.3482
421.1892	 48.1368
421.6551	 47.8564
422.1210	 47.5179
422.5869	 47.1339
423.0528	 46.7182
423.5188	 46.2854
423.9847	 45.8502
424.4506	 45.4267
424.9165	 45.0282
425.3824	 44.6664
425.8483	 44.3512
426.3143	 44.0901
426.7802	 43.8881
427.2461	 43.7476
427.7120	 43.6687
428.1779	 43.6488
428.6439	 43.6835
429.1098	 43.7665
429.5757	 43.8903
430.0416	 44.0463
430.5075	 44.2254
430.9734	 44.4184
431.4394	 44.6162
431.9053	 44.8101
432.3712	 44.9922
432.8371	 45.1552
433.3030	 45.2931
433.7689	 45.4008
434.2349	 45.4745
434.7008	 45.5116
435.1667	 45.5108
435.6326	 45.4721
436.0985	 45.3967
436.5644	 45.2870
437.0304	 45.1468
437.4963	 44.9807
437.9622	 44.7945
438.4281	 44.5946
438.8940	 44.3880
439.3599	 44.1819
439.8259	 43.9838
440.2918	 43.8007
440.7577	 43.6391
441.2236	 43.5045
441.6895	 43.4015
442.1555	 43.3332
442.6214	 43.3015
443.0873	 43.3064
443.5532	 43.3469
444.0191	 43.4203
444.4850	 43.5230
444.9510	 43.6501
445.4169	 43.7964
445.8828	 43.9558
446.3487	 44.1223
446.8146	 44.2899
447.2805	 44.4527
447.7465	 44.6055
448.2124	 44.7435
448.6783	 44.8627
449.1442	 44.9600
449.6101	 45.0331
450.0760	 45.0806
450.5420	 45.1023
451.0079	 45.0987
451.4738	 45.0714
451.9397	 45.0229
452.4056	 44.9563
452.8715	 44.8758
453.3375	 44.7860
453.8034	 44.6919
454.2693	 44.5990
454.7352	 44.5126
455.2011	 44.4383
455.6671	 44.3808
456.1330	 44.3446
456.5989	 44.3333
457.0648	 44.3496
457.5307	 44.3949
457.9966	 44.4698
458.4626	 44.5734
458.9285	 44.7041
459.3944	 44.8588
459.8603	 45.0341
460.3262	 45.2255
460.7921	 45.4284
461.2581	 45.6378
461.7240	 45.8487
462.1899	 46.0563
462.6558	 46.2562
463.1217	 46.4444
463.5876	 46.6177
464.0536	 46.7733
464.5195	 46.9095
464.9854	 47.0250
465.4513	 47.1198
465.9172	 47.1942
466.3831	 47.2496
466.8491	 47.2881
467.3150	 47.3121
467.7809	 47.3250
468.2468	 47.3305
468.7127	 47.3325
469.1787	 47.3352
469.6446	 47.3428
470.1105	 47.3595
470.5764	 47.3889
471.0423	 47.4345
471.5082	 47.4989
471.9742	 47.5842
472.4401	 47.6917
472.9060	 47.8218
473.3719	 47.9739
473.8378	 48.1469
474.3037	 48.3387
474.7697	 48.5467
475.2356	 48.7677
475.7015	 48.9984
476.1674	 49.2349
476.6333	 49.4736
477.0992	 49.7109
477.5652	 49.9435
478.0311	 50.1682
478.4970	 50.3826
478.9629	 50.5845
479.4288	 50.7725
479.8947	 50.9456
480.3607	 51.1035
480.8266	 51.2464
481.2925	 51.3751
481.7584	 51.4908
482.2243	 51.5952
482.6902	 51.6904
483.1562	 51.7788
483.6221	 51.8627
484.0880	 51.9450
484.5539	 52.0281
485.0198	 52.1145
485.4858	 52.2065
485.9517	 52.3061
486.4176	 52.4147
486.8835	 52.5334
487.3494	 52.6629
487.8153	 52.8031
488.2813	 52.9536
488.7472	 53.1133
489.2131	 53.2808
489.6790	 53.4542
490.1449	 53.6314
490.6108	 53.8099
491.0768	 53.9872
491.5427	 54.1607
492.0086	 54.3280
492.4745	 54.4867
492.9404	 54.6346
493.4063	 54.7700
493.8723	 54.8913
494.3382	 54.9975
494.8041	 55.0879
495.2700	 55.1622
495.7359	 55.2207
496.2018	 55.2640
496.6678	 55.2931
497.1337	 55.3095
497.5996	 55.3149
498.0655	 55.3113
498.5314	 55.3010
498.9974	 55.2863
499.4633	 55.2695
499.9292	 55.2531
500.3951	 55.2393
500.8610	 55.2300
501.3269	 55.2271
501.7929	 55.2318
502.2588	 55.2451
502.7247	 55.2675
503.1906	 55.2990
503.6565	 55.3391
504.1224	 55.3870
504.5884	 55.4413
505.0543	 55.5006
505.5202	 55.5629
505.9861	 55.6263
506.4520	 55.6886
506.9179	 55.7476
507.3839	 55.8015
507.8498	 55.8483
508.3157	 55.8863
508.7816	 55.9142
509.2475	 55.9310
509.7134	 55.9358
510.1794	 55.9284
510.6453	 55.9088
511.1112	 55.8774
511.5771	 55.8351
512.0430	 55.7830
512.5090	 55.7225
512.9749	 55.6552
513.4408	 55.5832
513.9067	 55.5085
514.3726	 55.4332
514.8385	 55.3595
515.3045	 55.2894
515.7704	 55.2248
516.2363	 55.1674
516.7022	 55.1186
517.1681	 55.0794
517.6340	 55.0505
518.1000	 55.0321
518.5659	 55.0239
519.0318	 55.0255
519.4977	 55.0357
519.9636	 55.0534
520.4295	 55.0768
520.8955	 55.1042
521.3614	 55.1337
521.8273	 55.1634
522.2932	 55.1913
522.7591	 55.2157
523.2250	 55.2349
523.6910	 55.2477
524.1569	 55.2530
524.6228	 55.2501
525.0887	 55.2385
525.5546	 55.2184
526.0206	 55.1900
526.4865	 55.1540
526.9524	 55.1114
527.4183	 55.0635
527.8842	 55.0118
528.3501	 54.9578
528.8161	 54.9034
529.2820	 54.8503
529.7479	 54.8002
530.2138	 54.7549
530.6797	 54.7156
531.1456	 54.6838
531.6116	 54.6603
532.0775	 54.6457
532.5434	 54.6405
533.0093	 54.6445
533.4752	 54.6572
533.9411	 54.6780
534.4071	 54.7057
534.8730	 54.7391
535.3389	 54.7766
535.8048	 54.8163
536.2707	 54.8566
536.7366	 54.8956
537.2026	 54.9314
537.6685	 54.9623
538.1344	 54.9867
538.6003	 55.0032
539.0662	 55.0107
539.5322	 55.0083
539.9981	 54.9955
540.4640	 54.9720
540.9299	 54.9378
541.3958	 54.8936
541.8617	 54.8399
542.3277	 54.7777
542.7936	 54.7084
543.2595	 54.6334
543.7254	 54.5544
544.1913	 54.4731
544.6572	 54.3914
545.1232	 54.3109
545.5891	 54.2334
546.0550	 54.1605
546.5209	 54.0934
546.9868	 54.0332
547.4527	 53.9808
547.9187	 53.9365
548.3846	 53.9007
548.8505	 53.8730
549.3164	 53.8532
549.7823	 53.8404
550.2482	 53.8337
550.7142	 53.8320
551.1801	 53.8340
551.6460	 53.8385
552.1119	 53.8442
552.5778	 53.8497
553.0438	 53.8540
553.5097	 53.8561
553.9756	 53.8550
554.4415	 53.8504
554.9074	 53.8417
555.3733	 53.8289
555.8393	 53.8120
556.3052	 53.7914
556.7711	 53.7677
557.2370	 53.7416
557.7029	 53.7139
558.1688	 53.6857
558.6348	 53.6580
559.1007	 53.6318
559.5666	 53.6082
560.0325	 53.5880
560.4984	 53.5720
560.9643	 53.5608
561.4303	 53.5547
561.8962	 53.5540
562.3621	 53.5583
562.8280	 53.5674
563.2939	 53.5804
563.7598	 53.5966
564.2258	 53.6146
564.6917	 53.6334
565.1576	 53.6513
565.6235	 53.6669
566.0894	 53.6786
566.5554	 53.6849
567.0213	 53.6845
567.4872	 53.6760
567.9531	 53.6584
568.4190	 53.6309
568.8849	 53.5929
569.3509	 53.5443
569.8168	 53.4849
570.2827	 53.4154
570.7486	 53.3363
571.2145	 53.2488
571.6804	 53.1541
572.1464	 53.0539
572.6123	 52.9500
573.0782	 52.8444
573.5441	 52.7392
574.0100	 52.6366
574.4759	 52.5387
574.9419	 52.4476
575.4078	 52.3653
575.8737	 52.2936
576.3396	 52.2339
576.8055	 52.1876
577.2714	 52.1555
577.7374	 52.1383
578.2033	 52.1362
578.6692	 52.1493
579.1351	 52.1770
579.6010	 52.2188
580.0670	 52.2737
580.5329	 52.3408
580.9988	 52.4188
581.4647	 52.5064
581.9306	 52.6022
582.3965	 52.7051
582.8625	 52.8137
583.3284	 52.9269
583.7943	 53.0438
584.2602	 53.1636
584.7261	 53.2856
585.1920	 53.4093
585.6580	 53.5347
586.1239	 53.6616
586.5898	 53.7901
587.0557	 53.9205
587.5216	 54.0533
587.9875	 54.1889
588.4535	 54.3278
588.9194	 54.4706
589.3853	 54.6179
589.8512	 54.7700
590.3171	 54.9274
590.7830	 55.0903
591.2490	 55.2588
591.7149	 55.4328
592.1808	 55.6119
592.6467	 55.7958
593.1126	 55.9838
593.5786	 56.1750
594.0445	 56.3686
594.5104	 56.5633
594.9763	 56.7582
595.4422	 56.9518
595.9081	 57.1431
596.3741	 57.3307
596.8400	 57.5135
597.3059	 57.6905
597.7718	 57.8607
598.2377	 58.0232
598.7036	 58.1775
599.1696	 58.3230
599.6355	 58.4596
600.1014	 58.5871
600.5673	 58.7055
601.0332	 58.8153
601.4991	 58.9167
601.9651	 59.0105
602.4310	 59.0972
602.8969	 59.1778
603.3628	 59.2530
603.8287	 59.3238
604.2946	 59.3911
604.7606	 59.4558
605.2265	 59.5187
605.6924	 59.5807
606.1583	 59.6425
606.6242	 59.7045
607.0902	 59.7672
607.5561	 59.8310
608.0220	 59.8961
608.4879	 59.9623
608.9538	 60.0297
609.4197	 60.0981
609.8857	 60.1670
610.3516	 60.2363
610.8175	 60.3053
611.2834	 60.3736
611.7493	 60.4408
612.2152	 60.5063
612.6812	 60.5698
613.1471	 60.6310
613.6130	 60.6894
614.0789	 60.7451
614.5448	 60.7979
615.0107	 60.8478
615.4767	 60.8950
615.9426	 60.9398
616.4085	 60.9826
616.8744	 61.0239
617.3403	 61.0641
617.8062	 61.1039
618.2722	 61.1440
618.7381	 61.1849
619.2040	 61.2273
619.6699	 61.2718
620.1358	 61.3188
620.6017	 61.3689
621.0677	 61.4224
621.5336	 61.4794
621.9995	 61.5400
622.4654	 61.6042
622.9313	 61.6719
623.3973	 61.7426
623.8632	 61.8159
624.3291	 61.8913
624.7950	 61.9681
625.2609	 62.0457
625.7268	 62.1234
626.1928	 62.2003
626.6587	 62.2758
627.1246	 62.3492
627.5905	 62.4197
628.0564	 62.4869
628.5223	 62.5503
628.9883	 62.6095
629.4542	 62.6642
629.9201	 62.7144
630.3860	 62.7601
630.8519	 62.8014
631.3178	 62.8385
631.7838	 62.8719
632.2497	 62.9021
632.7156	 62.9295
633.1815	 62.9549
633.6474	 62.9787
634.1133	 63.0019
634.5793	 63.0248
635.0452	 63.0483
635.5111	 63.0730
635.9770	 63.0992
636.4429	 63.1274
636.9089	 63.1580
637.3748	 63.1912
637.8407	 63.2270
638.3066	 63.2654
638.7725	 63.3063
639.2384	 63.3493
639.7044	 63.3943
640.1703	 63.4406
640.6362	 63.4878
641.1021	 63.5354
641.5680	 63.5827
642.0339	 63.6292
642.4999	 63.6743
642.9658	 63.7173
643.4317	 63.7578
643.8976	 63.7954
644.3635	 63.8297
644.8294	 63.8604
645.2954	 63.8873
645.7613	 63.9103
646.2272	 63.9294
646.6931	 63.9448
647.1590	 63.9565
647.6249	 63.9650
648.0909	 63.9704
648.5568	 63.9733
649.0227	 63.9739
649.4886	 63.9728
649.9545	 63.9702
650.4205	 63.9667
650.8864	 63.9626
651.3523	 63.9582
651.8182	 63.9537
652.2841	 63.9494
652.7500	 63.9453
653.2160	 63.9414
653.6819	 63.9379
654.1478	 63.9345
654.6137	 63.9311
655.0796	 63.9276
655.5455	 63.9238
656.0115	 63.9194
656.4774	 63.9142
656.9433	 63.9081
657.4092	 63.9009
657.8751	 63.8925
658.3410	 63.8828
658.8070	 63.8718
659.2729	 63.8597
659.7388	 63.8465
660.2047	 63.8326
660.6706	 63.8184
661.1365	 63.8043
661.6025	 63.7908
662.0684	 63.7785
662.5343	 63.7682
663.0002	 63.7606
663.4661	 63.7565
663.9321	 63.7566
664.3980	 63.7616
664.8639	 63.7723
665.3298	 63.7893
665.7957	 63.8132
666.2616	 63.8441
666.7276	 63.8825
667.1935	 63.9283
667.6594	 63.9814
668.1253	 64.0414
668.5912	 64.1080
669.0571	 64.1803
669.5231	 64.2578
669.9890	 64.3395
670.4549	 64.4245
670.9208	 64.5118
671.3867	 64.6004
671.8526	 64.6895
672.3186	 64.7782
672.7845	 64.8657
673.2504	 64.9513
673.7163	 65.0345
674.1822	 65.1148
674.6481	 65.1919
675.1141	 65.2657
675.5800	 65.3359
676.0459	 65.4027
676.5118	 65.4662
676.9777	 65.5264
677.4437	 65.5837
677.9096	 65.6383
678.3755	 65.6906
678.8414	 65.7407
679.3073	 65.7891
679.7732	 65.8360
680.2392	 65.8817
680.7051	 65.9263
681.1710	 65.9701
681.6369	 66.0131
682.1028	 66.0553
682.5687	 66.0968
683.0347	 66.1374
683.5006	 66.1769
683.9665	 66.2152
684.4324	 66.2520
684.8983	 66.2869
685.3642	 66.3197
685.8302	 66.3501
686.2961	 66.3777
686.7620	 66.4022
687.2279	 66.4235
687.6938	 66.4413
688.1597	 66.4555
688.6257	 66.4661
689.0916	 66.4732
689.5575	 66.4767
690.0234	 66.4770
690.4893	 66.4744
690.9553	 66.4692
691.4212	 66.4619
691.8871	 66.4529
692.3530	 66.4429
692.8189	 66.4323
693.2848	 66.4217
693.7508	 66.4118
694.2167	 66.4030
694.6826	 66.3958
695.1485	 66.3908
695.6144	 66.3882
696.0803	 66.3884
696.5463	 66.3915
697.0122	 66.3978
697.4781	 66.4072
697.9440	 66.4196
698.4099	 66.4350
698.8758	 66.4530
699.3418	 66.4734
699.8077	 66.4958
700.2736	 66.5197
700.7395	 66.5446
701.2054	 66.5702
701.6713	 66.5959
702.1373	 66.6213
702.6032	 66.6458
703.0691	 66.6691
703.5350	 66.6908
704.0009	 66.7107
704.4669	 66.7284
704.9328	 66.7439
705.3987	 66.7570
705.8646	 66.7678
706.3305	 66.7763
706.7964	 66.7826
707.2624	 66.7870
707.7283	 66.7896
708.1942	 66.7907
708.6601	 66.7906
709.1260	 66.7897
709.5919	 66.7882
710.0579	 66.7865
710.5238	 66.7848
710.9897	 66.7834
711.4556	 66.7824
711.9215	 66.7820
712.3874	 66.7823
712.8534	 66.7833
713.3193	 66.7850
713.7852	 66.7873
714.2511	 66.7901
714.7170	 66.7931
715.1829	 66.7963
715.6489	 66.7994
716.1148	 66.8021
716.5807	 66.8041
717.0466	 66.8054
717.5125	 66.8055
717.9785	 66.8044
718.4444	 66.8020
718.9103	 66.7980
719.3762	 66.7926
719.8421	 66.7856
720.3080	 66.7772
720.7740	 66.7675
721.2399	 66.7567
721.7058	 66.7449
722.1717	 66.7324
722.6376	 66.7196
723.1035	 66.7066
723.5695	 66.6938
724.0354	 66.6815
724.5013	 66.6699
724.9672	 66.6593
725.4331	 66.6499
725.8990	 66.6418
726.3650	 66.6351
726.8309	 66.6298
727.2968	 66.6260
727.7627	 66.6235
728.2286	 66.6222
728.6945	 66.6219
729.1605	 66.6223
729.6264	 66.6232
730.0923	 66.6241
730.5582	 66.6248
731.0241	 66.6250
731.4901	 66.6243
731.9560	 66.6225
732.4219	 66.6192
732.8878	 66.6143
733.3537	 66.6075
733.8196	 66.5988
734.2856	 66.5881
734.7515	 66.5754
735.2174	 66.5610
735.6833	 66.5448
736.1492	 66.5271
736.6151	 66.5083
737.0811	 66.4885
737.5470	 66.4683
738.0129	 66.4480
738.4788	 66.4279
738.9447	 66.4084
739.4106	 66.3900
739.8766	 66.3730
740.3425	 66.3576
740.8084	 66.3442
741.2743	 66.3329
741.7402	 66.3238
742.2061	 66.3170
742.6721	 66.3125
743.1380	 66.3101
743.6039	 66.3098
744.0698	 66.3112
744.5357	 66.3141
745.0017	 66.3181
745.4676	 66.3230
745.9335	 66.3283
746.3994	 66.3337
746.8653	 66.3388
747.3312	 66.3432
747.7972	 66.3468
748.2631	 66.3491
748.7290	 66.3501
749.1949	 66.3496
749.6608	 66.3474
750.1267	 66.3436
750.5927	 66.3383
751.0586	 66.3316
751.5245	 66.3235
751.9904	 66.3144
752.4563	 66.3045
752.9222	 66.2942
753.3882	 66.2836
753.8541	 66.2731
754.3200	 66.2630
754.7859	 66.2536
755.2518	 66.2451
755.7177	 66.2376
756.1837	 66.2314
756.6496	 66.2266
757.1155	 66.2230
757.5814	 66.2207
758.0473	 66.2195
758.5132	 66.2192
758.9792	 66.2196
759.4451	 66.2204
759.9110	 66.2212
760.3769	 66.2216
760.8428	 66.2213
761.3088	 66.2198
761.7747	 66.2168
762.2406	 66.2117
762.7065	 66.2044
763.1724	 66.1945
763.6383	 66.1816
764.1043	 66.1657
764.5702	 66.1466
765.0361	 66.1242
765.5020	 66.0984
765.9679	 66.0694
766.4338	 66.0373
766.8998	 66.0021
767.3657	 65.9642
767.8316	 65.9238
768.2975	 65.8812
768.7634	 65.8367
769.2293	 65.7905
769.6953	 65.7430
770.1612	 65.6944
770.6271	 65.6451
771.0930	 65.5952
771.5589	 65.5448
772.0248	 65.4942
772.4908	 65.4434
772.9567	 65.3924
773.4226	 65.3412
773.8885	 65.2897
774.3544	 65.2378
774.8204	 65.1853
775.2863	 65.1322
775.7522	 65.0781
776.2181	 65.0229
776.6840	 64.9665
777.1499	 64.9087
777.6159	 64.8493
778.0818	 64.7883
778.5477	 64.7256
779.0136	 64.6614
779.4795	 64.5955
779.9454	 64.5283
780.4114	 64.4599
780.8773	 64.3905
781.3432	 64.3206
781.8091	 64.2504
782.2750	 64.1804
782.7409	 64.1111
783.2069	 64.0429
783.6728	 63.9763
784.1387	 63.9117
784.6046	 63.8496
785.0705	 63.7905
785.5364	 63.7346
786.0024	 63.6824
786.4683	 63.6340
786.9342	 63.5897
787.4001	 63.5496
787.8660	 63.5137
788.3320	 63.4820
788.7979	 63.4543
789.2638	 63.4305
789.7297	 63.4104
790.1956	 63.3936
790.6615	 63.3798
791.1275	 63.3687
791.5934	 63.3599
792.0593	 63.3531
792.5252	 63.3477
792.9911	 63.3436
793.4570	 63.3404
793.9230	 63.3377
794.3889	 63.3354
794.8548	 63.3333
795.3207	 63.3313
795.7866	 63.3292
796.2525	 63.3270
796.7185	 63.3247
797.1844	 63.3224
797.6503	 63.3202
798.1162	 63.3182
798.5821	 63.3166
799.0480	 63.3154
799.5140	 63.3148
799.9799	 63.3150
800.4458	 63.3160
800.9117	 63.3181
801.3776	 63.3212
801.8436	 63.3253
802.3095	 63.3306
802.7754	 63.3370
803.2413	 63.3444
803.7072	 63.3528
804.1731	 63.3619
804.6391	 63.3718
805.1050	 63.3823
805.5709	 63.3931
806.0368	 63.4043
806.5027	 63.4157
806.9686	 63.4271
807.4346	 63.4386
807.9005	 63.4500
808.3664	 63.4615
808.8323	 63.4729
809.2982	 63.4845
809.7641	 63.4963
810.2301	 63.5085
810.6960	 63.5212
811.1619	 63.5347
811.6278	 63.5492
812.0937	 63.5649
812.5596	 63.5820
813.0256	 63.6006
813.4915	 63.6211
813.9574	 63.6434
814.4233	 63.6677
814.8892	 63.6940
815.3552	 63.7221
815.8211	 63.7520
816.2870	 63.7834
816.7529	 63.8161
817.2188	 63.8497
817.6847	 63.8837
818.1507	 63.9177
818.6166	 63.9510
819.0825	 63.9833
819.5484	 64.0137
820.0143	 64.0417
820.4802	 64.0666
820.9462	 64.0879
821.4121	 64.1051
821.8780	 64.1175
822.3439	 64.1248
822.8098	 64.1266
823.2757	 64.1227
823.7417	 64.1128
824.2076	 64.0969
824.6735	 64.0752
825.1394	 64.0477
825.6053	 64.0147
826.0712	 63.9766
826.5372	 63.9340
827.0031	 63.8874
827.4690	 63.8374
827.9349	 63.7848
828.4008	 63.7305
828.8668	 63.6751
829.3327	 63.6196
829.7986	 63.5648
830.2645	 63.5116
830.7304	 63.4606
831.1963	 63.4128
831.6623	 63.3687
832.1282	 63.3290
832.5941	 63.2943
833.0600	 63.2650
833.5259	 63.2415
833.9918	 63.2240
834.4578	 63.2127
834.9237	 63.2078
835.3896	 63.2092
835.8555	 63.2169
836.3214	 63.2306
836.7873	 63.2503
837.2533	 63.2757
837.7192	 63.3065
838.1851	 63.3423
838.6510	 63.3828
839.1169	 63.4276
839.5828	 63.4764
840.0488	 63.5287
840.5147	 63.5842
840.9806	 63.6425
841.4465	 63.7033
841.9124	 63.7661
842.3784	 63.8305
842.8443	 63.8963
843.3102	 63.9630
843.7761	 64.0304
844.2420	 64.0980
844.7079	 64.1655
845.1739	 64.2325
845.6398	 64.2987
846.1057	 64.3638
846.5716	 64.4275
847.0375	 64.4893
847.5034	 64.5489
847.9694	 64.6062
848.4353	 64.6607
848.9012	 64.7123
849.3671	 64.7606
849.8330	 64.8056
850.2989	 64.8472
850.7649	 64.8851
851.2308	 64.9194
851.6967	 64.9502
852.1626	 64.9774
852.6285	 65.0014
853.0944	 65.0222
853.5604	 65.0402
854.0263	 65.0557
854.4922	 65.0691
854.9581	 65.0808
855.4240	 65.0913
855.8900	 65.1011
856.3559	 65.1106
856.8218	 65.1204
857.2877	 65.1311
857.7536	 65.1430
858.2195	 65.1567
858.6855	 65.1726
859.1514	 65.1910
859.6173	 65.2123
860.0832	 65.2367
860.5491	 65.2643
861.0150	 65.2953
861.4810	 65.3297
861.9469	 65.3674
862.4128	 65.4083
862.8787	 65.4521
863.3446	 65.4987
863.8105	 65.5477
864.2765	 65.5987
864.7424	 65.6513
865.2083	 65.7053
865.6742	 65.7601
866.1401	 65.8153
866.6060	 65.8706
867.0720	 65.9256
867.5379	 65.9801
868.0038	 66.0336
868.4697	 66.0861
868.9356	 66.1374
869.4016	 66.1872
869.8675	 66.2357
870.3334	 66.2827
870.7993	 66.3284
871.2652	 66.3728
871.7311	 66.4161
872.1971	 66.4584
872.6630	 66.5000
873.1289	 66.5409
873.5948	 66.5815
874.0607	 66.6218
874.5266	 66.6622
874.9926	 66.7027
875.4585	 66.7434
875.9244	 66.7844
876.3903	 66.8259
876.8562	 66.8677
877.3221	 66.9099
877.7881	 66.9524
878.2540	 66.9951
878.7199	 67.0378
879.1858	 67.0804
879.6517	 67.1226
880.1176	 67.1644
880.5836	 67.2053
881.0495	 67.2454
881.5154	 67.2843
881.9813	 67.3220
882.4472	 67.3582
882.9132	 67.3929
883.3791	 67.4260
883.8450	 67.4574
884.3109	 67.4871
884.7768	 67.5153
885.2427	 67.5419
885.7087	 67.5671
886.1746	 67.5911
886.6405	 67.6139
887.1064	 67.6359
887.5723	 67.6573
888.0382	 67.6782
888.5042	 67.6989
888.9701	 67.7197
889.4360	 67.7406
889.9019	 67.7619
890.3678	 67.7838
890.8337	 67.8063
891.2997	 67.8296
891.7656	 67.8537
892.2315	 67.8786
892.6974	 67.9043
893.1633	 67.9308
893.6292	 67.9579
894.0952	 67.9855
894.5611	 68.0135
895.0270	 68.0418
895.4929	 68.0701
895.9588	 68.0982
896.4247	 68.1261
896.8907	 68.1535
897.3566	 68.1803
897.8225	 68.2064
898.2884	 68.2315
898.7543	 68.2556
899.2203	 68.2787
899.6862	 68.3006
900.1521	 68.3213
900.6180	 68.3409
901.0839	 68.3592
901.5498	 68.3763
902.0158	 68.3922
902.4817	 68.4070
902.9476	 68.4207
903.4135	 68.4332
903.8794	 68.4446
904.3453	 68.4548
904.8113	 68.4640
905.2772	 68.4719
905.7431	 68.4786
906.2090	 68.4840
906.6749	 68.4880
907.1408	 68.4904
907.6068	 68.4912
908.0727	 68.4901
908.5386	 68.4871
909.0045	 68.4819
909.4704	 68.4744
909.9363	 68.4646
910.4023	 68.4521
910.8682	 68.4370
911.3341	 68.4191
911.8000	 68.3983
912.2659	 68.3747
912.7319	 68.3483
913.1978	 68.3190
913.6637	 68.2870
914.1296	 68.2523
914.5955	 68.2151
915.0614	 68.1756
915.5274	 68.1339
915.9933	 68.0904
916.4592	 68.0451
916.9251	 67.9984
917.3910	 67.9506
917.8569	 67.9017
918.3229	 67.8522
918.7888	 67.8021
919.2547	 67.7517
919.7206	 67.7011
920.1865	 67.6505
920.6524	 67.6000
921.1184	 67.5495
921.5843	 67.4992
922.0502	 67.4490
922.5161	 67.3989
922.9820	 67.3488
923.4479	 67.2986
923.9139	 67.2481
924.3798	 67.1972
924.8457	 67.1458
925.3116	 67.0937
925.7775	 67.0409
926.2435	 66.9870
926.7094	 66.9322
927.1753	 66.8762
927.6412	 66.8190
928.1071	 66.7605
928.5730	 66.7009
929.0390	 66.6401
929.5049	 66.5782
929.9708	 66.5153
930.4367	 66.4515
930.9026	 66.3870
931.3685	 66.3220
931.8345	 66.2566
932.3004	 66.1911
932.7663	 66.1256
933.2322	 66.0603
933.6981	 65.9954
934.1640	 65.9310
934.6300	 65.8673
935.0959	 65.8043
935.5618	 65.7420
936.0277	 65.6805
936.4936	 65.6197
936.9595	 65.5596
937.4255	 65.5000
937.8914	 65.4408
938.3573	 65.3818
938.8232	 65.3229
939.2891	 65.2637
939.7551	 65.2041
940.2210	 65.1438
940.6869	 65.0826
941.1528	 65.0201
941.6187	 64.9563
942.0846	 64.8909
942.5506	 64.8237
943.0165	 64.7546
943.4824	 64.6835
943.9483	 64.6103
944.4142	 64.5349
944.8801	 64.4574
945.3461	 64.3777
945.8120	 64.2961
946.2779	 64.2124
946.7438	 64.1269
947.2097	 64.0397
947.6756	 63.9509
948.1416	 63.8606
948.6075	 63.7691
949.0734	 63.6764
949.5393	 63.5827
950.0052	 63.4882
950.4711	 63.3928
950.9371	 63.2968
951.4030	 63.2001
951.8689	 63.1028
952.3348	 63.0049
952.8007	 62.9065
953.2667	 62.8074
953.7326	 62.7077
954.1985	 62.6074
954.6644	 62.5064
955.1303	 62.4047
955.5962	 62.3022
956.0622	 62.1990
956.5281	 62.0950
956.9940	 61.9904
957.4599	 61.8851
957.9258	 61.7793
958.3917	 61.6730
958.8577	 61.5663
959.3236	 61.4596
959.7895	 61.3528
960.2554	 61.2463
960.7213	 61.1402
961.1872	 61.0348
961.6532	 60.9302
962.1191	 60.8266
962.5850	 60.7242
963.0509	 60.6232
963.5168	 60.5236
963.9827	 60.4255
964.4487	 60.3290
964.9146	 60.2340
965.3805	 60.1404
965.8464	 60.0481
966.3123	 59.9569
966.7783	 59.8665
967.2442	 59.7767
967.7101	 59.6870
968.1760	 59.5971
968.6419	 59.5067
969.1078	 59.4153
969.5738	 59.3225
970.0397	 59.2278
970.5056	 59.1309
970.9715	 59.0315
971.4374	 58.9291
971.9033	 58.8236
972.3693	 58.7146
972.8352	 58.6021
973.3011	 58.4860
973.7670	 58.3662
974.2329	 58.2428
974.6988	 58.1159
975.1648	 57.9858
975.6307	 57.8527
976.0966	 57.7170
976.5625	 57.5790
977.0284	 57.4392
977.4943	 57.2980
977.9603	 57.1559
978.4262	 57.0133
978.8921	 56.8709
979.3580	 56.7291
979.8239	 56.5882
980.2899	 56.4489
980.7558	 56.3113
981.2217	 56.1758
981.6876	 56.0428
982.1535	 55.9124
982.6194	 55.7847
983.0854	 55.6598
983.5513	 55.5378
984.0172	 55.4186
984.4831	 55.3021
984.9490	 55.1881
985.4149	 55.0765
985.8809	 54.9670
986.3468	 54.8593
986.8127	 54.7532
987.2786	 54.6484
987.7445	 54.5445
988.2104	 54.4413
988.6764	 54.3384
989.1423	 54.2356
989.6082	 54.1325
990.0741	 54.0290
990.5400	 53.9247
991.0059	 53.8195
991.4719	 53.7131
991.9378	 53.6052
992.4037	 53.4958
992.8696	 53.3847
993.3355	 53.2716
993.8015	 53.1564
994.2674	 53.0390
994.7333	 52.9193
995.1992	 52.7970
995.6651	 52.6720
996.1310	 52.5442
996.5970	 52.4135
997.0629	 52.2798
997.5288	 52.1428
997.9947	 52.0025
998.4606	 51.8589
998.9265	 51.7118
999.3925	 51.5612
999.8584	 51.4071
1000.3243	 51.2496
1000.7902	 51.0887
1001.2561	 50.9245
1001.7220	 50.7572
1002.1880	 50.5870
1002.6539	 50.4142
1003.1198	 50.2391
1003.5857	 50.0620
1004.0516	 49.8832
1004.5175	 49.7034
1004.9835	 49.5228
1005.4494	 49.3419
1005.9153	 49.1614
1006.3812	 48.9815
1006.8471	 48.8029
1007.3131	 48.6259
1007.7790	 48.4510
1008.2449	 48.2785
1008.7108	 48.1088
1009.1767	 47.9422
1009.6426	 47.7789
1010.1086	 47.6189
1010.5745	 47.4623
1011.0404	 47.3092
1011.5063	 47.1595
1011.9722	 47.0129
1012.4381	 46.8693
1012.9041	 46.7285
1013.3700	 46.5901
1013.8359	 46.4538
1014.3018	 46.3193
1014.7677	 46.1862
1015.2336	 46.0543
1015.6996	 45.9233
1016.1655	 45.7929
1016.6314	 45.6629
1017.0973	 45.5333
1017.5632	 45.4040
1018.0291	 45.2752
1018.4951	 45.1468
1018.9610	 45.0193
1019.4269	 44.8929
1019.8928	 44.7682
1020.3587	 44.6455
1020.8247	 44.5255
1021.2906	 44.4090
1021.7565	 44.2965
1022.2224	 44.1888
1022.6883	 44.0868
1023.1542	 43.9912
1023.6202	 43.9027
1024.0861	 43.8221
1024.5520	 43.7500
1025.0179	 43.6871
1025.4838	 43.6338
1025.9497	 43.5907
1026.4157	 43.5580
1026.8816	 43.5360
1027.3475	 43.5247
1027.8134	 43.5243
1028.2793	 43.5345
1028.7452	 43.5551
1029.2112	 43.5857
1029.6771	 43.6260
1030.1430	 43.6754
1030.6089	 43.7332
1031.0748	 43.7989
1031.5407	 43.8716
1032.0067	 43.9506
1032.4726	 44.0351
1032.9385	 44.1243
1033.4044	 44.2173
1033.8703	 44.3134
1034.3362	 44.4116
1034.8022	 44.5113
1035.2681	 44.6116
1035.7340	 44.7119
1036.1999	 44.8116
1036.6658	 44.9099
1037.1318	 45.0064
1037.5977	 45.1005
1038.0636	 45.1917
1038.5295	 45.2799
1038.9954	 45.3645
1039.4613	 45.4453
1039.9273	 45.5223
1040.3932	 45.5952
1040.8591	 45.6640
1041.3250	 45.7287
1041.7909	 45.7895
1042.2568	 45.8464
1042.7228	 45.8997
1043.1887	 45.9496
1043.6546	 45.9966
1044.1205	 46.0410
1044.5864	 46.0832
1045.0523	 46.1239
1045.5183	 46.1635
1045.9842	 46.2027
1046.4501	 46.2421
1046.9160	 46.2824
1047.3819	 46.3243
1047.8478	 46.3685
1048.3138	 46.4158
1048.7797	 46.4668
1049.2456	 46.5223
1049.7115	 46.5828
1050.1774	 46.6491
1050.6434	 46.7216
1051.1093	 46.8009
1051.5752	 46.8874
1052.0411	 46.9813
1052.5070	 47.0830
1052.9729	 47.1924
1053.4389	 47.3097
1053.9048	 47.4347
1054.3707	 47.5671
1054.8366	 47.7067
1055.3025	 47.8529
1055.7684	 48.0053
1056.2344	 48.1631
1056.7003	 48.3258
1057.1662	 48.4924
1057.6321	 48.6622
1058.0980	 48.8342
1058.5639	 49.0076
1059.0299	 49.1815
1059.4958	 49.3551
1059.9617	 49.5273
1060.4276	 49.6975
1060.8935	 49.8649
1061.3594	 50.0288
1061.8254	 50.1885
1062.2913	 50.3436
1062.7572	 50.4936
1063.2231	 50.6382
1063.6890	 50.7770
1064.1550	 50.9099
1064.6209	 51.0367
1065.0868	 51.1575
1065.5527	 51.2723
1066.0186	 51.3811
1066.4845	 51.4842
1066.9505	 51.5816
1067.4164	 51.6736
1067.8823	 51.7603
1068.3482	 51.8421
1068.8141	 51.9191
1069.2800	 51.9915
1069.7460	 52.0594
1070.2119	 52.1231
1070.6778	 52.1827
1071.1437	 52.2382
1071.6096	 52.2897
1072.0755	 52.3373
1072.5415	 52.3809
1073.0074	 52.4206
1073.4733	 52.4563
1073.9392	 52.4880
1074.4051	 52.5157
1074.8710	 52.5393
1075.3370	 52.5588
1075.8029	 52.5743
1076.2688	 52.5857
1076.7347	 52.5931
1077.2006	 52.5967
1077.6666	 52.5966
1078.1325	 52.5929
1078.5984	 52.5859
1079.0643	 52.5759
1079.5302	 52.5631
1079.9961	 52.5478
1080.4621	 52.5303
1080.9280	 52.5111
1081.3939	 52.4905
1081.8598	 52.4688
1082.3257	 52.4463
1082.7916	 52.4234
1083.2576	 52.4003
1083.7235	 52.3773
1084.1894	 52.3546
1084.6553	 52.3324
1085.1212	 52.3107
1085.5871	 52.2897
1086.0531	 52.2693
1086.5190	 52.2495
1086.9849	 52.2303
1087.4508	 52.2115
1087.9167	 52.1930
1088.3826	 52.1747
1088.8486	 52.1563
1089.3145	 52.1377
1089.7804	 52.1187
1090.2463	 52.0992
1090.7122	 52.0791
1091.1782	 52.0582
1091.6441	 52.0365
1092.1100	 52.0141
1092.5759	 51.9910
1093.0418	 51.9672
1093.5077	 51.9430
1093.9737	 51.9185
1094.4396	 51.8940
1094.9055	 51.8699
1095.3714	 51.8464
1095.8373	 51.8240
1096.3032	 51.8030
1096.7692	 51.7839
1097.2351	 51.7670
1097.7010	 51.7528
1098.1669	 51.7417
1098.6328	 51.7340
1099.0987	 51.7300
1099.5647	 51.7300
1100.0306	 51.7343
1100.4965	 51.7430
1100.9624	 51.7562
1101.4283	 51.7740
1101.8942	 51.7963
1102.3602	 51.8232
1102.8261	 51.8543
1103.2920	 51.8896
1103.7579	 51.9289
1104.2238	 51.9718
1104.6898	 52.0180
1105.1557	 52.0674
1105.6216	 52.1194
1106.0875	 52.1737
1106.5534	 52.2301
1107.0193	 52.2881
1107.4853	 52.3474
1107.9512	 52.4078
1108.4171	 52.4690
1108.8830	 52.5306
1109.3489	 52.5925
1109.8148	 52.6545
1110.2808	 52.7164
1110.7467	 52.7781
1111.2126	 52.8394
1111.6785	 52.9004
1112.1444	 52.9610
1112.6103	 53.0211
1113.0763	 53.0808
1113.5422	 53.1401
1114.0081	 53.1990
1114.4740	 53.2577
1114.9399	 53.3162
1115.4058	 53.3746
1115.8718	 53.4330
1116.3377	 53.4916
1116.8036	 53.5505
1117.2695	 53.6099
1117.7354	 53.6699
1118.2014	 53.7307
1118.6673	 53.7926
1119.1332	 53.8556
1119.5991	 53.9202
1120.0650	 53.9864
1120.5309	 54.0544
1120.9969	 54.1247
1121.4628	 54.1973
1121.9287	 54.2725
1122.3946	 54.3506
1122.8605	 54.4317
1123.3264	 54.5159
1123.7924	 54.6036
1124.2583	 54.6946
1124.7242	 54.7892
1125.1901	 54.8874
1125.6560	 54.9890
1126.1219	 55.0939
1126.5879	 55.2021
1127.0538	 55.3131
1127.5197	 55.4268
1127.9856	 55.5426
1128.4515	 55.6602
1128.9174	 55.7788
1129.3834	 55.8981
1129.8493	 56.0172
1130.3152	 56.1355
1130.7811	 56.2521
1131.2470	 56.3664
1131.7130	 56.4775
1132.1789	 56.5846
1132.6448	 56.6869
1133.1107	 56.7836
1133.5766	 56.8741
1134.0425	 56.9576
1134.5085	 57.0335
1134.9744	 57.1012
1135.4403	 57.1604
1135.9062	 57.2105
1136.3721	 57.2515
1136.8380	 57.2829
1137.3040	 57.3049
1137.7699	 57.3173
1138.2358	 57.3203
1138.7017	 57.3141
1139.1676	 57.2989
1139.6335	 57.2753
1140.0995	 57.2436
1140.5654	 57.2043
1141.0313	 57.1580
1141.4972	 57.1054
1141.9631	 57.0470
1142.4290	 56.9836
1142.8950	 56.9158
1143.3609	 56.8443
1143.8268	 56.7698
1144.2927	 56.6930
1144.7586	 56.6144
1145.2246	 56.5346
1145.6905	 56.4543
1146.1564	 56.3740
1146.6223	 56.2941
1147.0882	 56.2152
1147.5541	 56.1377
1148.0201	 56.0618
1148.4860	 55.9881
1148.9519	 55.9169
1149.4178	 55.8485
1149.8837	 55.7831
1150.3496	 55.7212
1150.8156	 55.6630
1151.2815	 55.6088
1151.7474	 55.5589
1152.2133	 55.5136
1152.6792	 55.4732
1153.1451	 55.4380
1153.6111	 55.4083
1154.0770	 55.3844
1154.5429	 55.3665
1155.0088	 55.3549
1155.4747	 55.3499
1155.9406	 55.3517
1156.4066	 55.3603
1156.8725	 55.3759
1157.3384	 55.3987
1157.8043	 55.4285
1158.2702	 55.4653
1158.7362	 55.5090
1159.2021	 55.5594
1159.6680	 55.6162
1160.1339	 55.6791
1160.5998	 55.7478
1161.0657	 55.8217
1161.5317	 55.9003
1161.9976	 55.9832
1162.4635	 56.0697
1162.9294	 56.1592
1163.3953	 56.2512
1163.8612	 56.3451
1164.3272	 56.4401
1164.7931	 56.5358
1165.2590	 56.6316
1165.7249	 56.7271
1166.1908	 56.8216
1166.6567	 56.9150
1167.1227	 57.0067
1167.5886	 57.0965
1168.0545	 57.1843
1168.5204	 57.2697
1168.9863	 57.3529
1169.4522	 57.4336
1169.9182	 57.5119
1170.3841	 57.5878
1170.8500	 57.6615
1171.3159	 57.7331
1171.7818	 57.8027
1172.2477	 57.8705
1172.7137	 57.9366
1173.1796	 58.0012
1173.6455	 58.0645
1174.1114	 58.1265
1174.5773	 58.1875
1175.0433	 58.2474
1175.5092	 58.3064
1175.9751	 58.3645
1176.4410	 58.4217
1176.9069	 58.4779
1177.3728	 58.5331
1177.8388	 58.5873
1178.3047	 58.6402
1178.7706	 58.6919
1179.2365	 58.7421
1179.7024	 58.7908
1180.1683	 58.8377
1180.6343	 58.8828
1181.1002	 58.9259
1181.5661	 58.9670
1182.0320	 59.0058
1182.4979	 59.0425
1182.9638	 59.0768
1183.4298	 59.1087
1183.8957	 59.1383
1184.3616	 59.1655
1184.8275	 59.1904
1185.2934	 59.2129
1185.7593	 59.2332
1186.2253	 59.2514
1186.6912	 59.2674
1187.1571	 59.2813
1187.6230	 59.2934
1188.0889	 59.3035
1188.5549	 59.3119
1189.0208	 59.3185
1189.4867	 59.3235
1189.9526	 59.3269
1190.4185	 59.3288
1190.8844	 59.3292
1191.3504	 59.3282
1191.8163	 59.3259
1192.2822	 59.3224
1192.7481	 59.3176
1193.2140	 59.3118
1193.6799	 59.3050
1194.1459	 59.2973
1194.6118	 59.2889
1195.0777	 59.2799
1195.5436	 59.2706
1196.0095	 59.2611
1196.4754	 59.2517
1196.9414	 59.2426
1197.4073	 59.2342
1197.8732	 59.2268
1198.3391	 59.2206
1198.8050	 59.2160
1199.2709	 59.2133
1199.7369	 59.2128
1200.2028	 59.2150
1200.6687	 59.2200
1201.1346	 59.2281
1201.6005	 59.2396
1202.0665	 59.2547
1202.5324	 59.2735
1202.9983	 59.2962
1203.4642	 59.3229
1203.9301	 59.3535
1204.3960	 59.3881
1204.8620	 59.4264
1205.3279	 59.4685
1205.7938	 59.5141
1206.2597	 59.5629
1206.7256	 59.6148
1207.1915	 59.6694
1207.6575	 59.7265
1208.1234	 59.7857
1208.5893	 59.8467
1209.0552	 59.9092
1209.5211	 59.9729
1209.9870	 60.0375
1210.4530	 60.1027
1210.9189	 60.1684
1211.3848	 60.2344
1211.8507	 60.3005
1212.3166	 60.3666
1212.7825	 60.4327
1213.2485	 60.4988
1213.7144	 60.5649
1214.1803	 60.6312
1214.6462	 60.6975
1215.1121	 60.7643
1215.5781	 60.8314
1216.0440	 60.8993
1216.5099	 60.9679
1216.9758	 61.0375
1217.4417	 61.1082
1217.9076	 61.1803
1218.3736	 61.2538
1218.8395	 61.3288
1219.3054	 61.4055
1219.7713	 61.4839
1220.2372	 61.5640
1220.7031	 61.6459
1221.1691	 61.7294
1221.6350	 61.8146
1222.1009	 61.9014
1222.5668	 61.9895
1223.0327	 62.0791
1223.4986	 62.1698
1223.9646	 62.2616
1224.4305	 62.3543
1224.8964	 62.4479
1225.3623	 62.5421
1225.8282	 62.6369
1226.2941	 62.7321
1226.7601	 62.8277
1227.2260	 62.9237
1227.6919	 63.0200
1228.1578	 63.1166
1228.6237	 63.2134
1229.0897	 63.3106
1229.5556	 63.4081
1230.0215	 63.5060
1230.4874	 63.6043
1230.9533	 63.7031
1231.4192	 63.8024
1231.8852	 63.9023
1232.3511	 64.0027
1232.8170	 64.1038
1233.2829	 64.2053
1233.7488	 64.3075
1234.2147	 64.4100
1234.6807	 64.5130
1235.1466	 64.6161
1235.6125	 64.7194
1236.0784	 64.8226
1236.5443	 64.9255
1237.0102	 65.0280
1237.4762	 65.1297
1237.9421	 65.2305
1238.4080	 65.3301
1238.8739	 65.4282
1239.3398	 65.5247
1239.8057	 65.6192
1240.2717	 65.7116
1240.7376	 65.8016
1241.2035	 65.8891
1241.6694	 65.9739
1242.1353	 66.0558
1242.6013	 66.1347
1243.0672	 66.2106
1243.5331	 66.2833
1243.9990	 66.3528
1244.4649	 66.4191
1244.9308	 66.4822
1245.3968	 66.5421
1245.8627	 66.5988
1246.3286	 66.6524
1246.7945	 66.7030
1247.2604	 66.7504
1247.7263	 66.7950
1248.1923	 66.8366
1248.6582	 66.8755
1249.1241	 66.9115
1249.5900	 66.9449
1250.0559	 66.9756
1250.5218	 67.0038
1250.9878	 67.0295
1251.4537	 67.0528
1251.9196	 67.0737
1252.3855	 67.0924
1252.8514	 67.1089
1253.3173	 67.1233
1253.7833	 67.1358
1254.2492	 67.1465
1254.7151	 67.1556
1255.1810	 67.1633
1255.6469	 67.1698
1256.1129	 67.1753
1256.5788	 67.1802
1257.0447	 67.1847
1257.5106	 67.1891
1257.9765	 67.1939
1258.4424	 67.1993
1258.9084	 67.2058
1259.3743	 67.2137
1259.8402	 67.2235
1260.3061	 67.2355
1260.7720	 67.2502
1261.2379	 67.2680
1261.7039	 67.2891
1262.1698	 67.3139
1262.6357	 67.3428
1263.1016	 67.3760
1263.5675	 67.4137
1264.0334	 67.4561
1264.4994	 67.5035
1264.9653	 67.5557
1265.4312	 67.6130
1265.8971	 67.6753
1266.3630	 67.7426
1266.8289	 67.8148
1267.2949	 67.8917
1267.7608	 67.9732
1268.2267	 68.0592
1268.6926	 68.1495
1269.1585	 68.2437
1269.6245	 68.3418
1270.0904	 68.4434
1270.5563	 68.5483
1271.0222	 68.6563
1271.4881	 68.7671
1271.9540	 68.8805
1272.4200	 68.9964
1272.8859	 69.1144
1273.3518	 69.2345
1273.8177	 69.3564
1274.2836	 69.4799
1274.7495	 69.6049
1275.2155	 69.7313
1275.6814	 69.8588
1276.1473	 69.9874
1276.6132	 70.1168
1277.0791	 70.2470
1277.5450	 70.3778
1278.0110	 70.5090
1278.4769	 70.6404
1278.9428	 70.7720
1279.4087	 70.9034
1279.8746	 71.0345
1280.3405	 71.1651
1280.8065	 71.2951
1281.2724	 71.4242
1281.7383	 71.5521
1282.2042	 71.6788
1282.6701	 71.8039
1283.1361	 71.9274
1283.6020	 72.0489
1284.0679	 72.1684
1284.5338	 72.2857
1284.9997	 72.4005
1285.4656	 72.5129
1285.9316	 72.6227
1286.3975	 72.7298
1286.8634	 72.8340
1287.3293	 72.9355
1287.7952	 73.0340
1288.2611	 73.1297
1288.7271	 73.2224
1289.1930	 73.3123
1289.6589	 73.3992
1290.1248	 73.4833
1290.5907	 73.5645
1291.0566	 73.6429
1291.5226	 73.7185
1291.9885	 73.7913
1292.4544	 73.8612
1292.9203	 73.9284
1293.3862	 73.9928
1293.8521	 74.0543
1294.3181	 74.1130
1294.7840	 74.1688
1295.2499	 74.2216
1295.7158	 74.2714
1296.1817	 74.3180
1296.6477	 74.3616
1297.1136	 74.4019
1297.5795	 74.4389
1298.0454	 74.4725
1298.5113	 74.5028
1298.9772	 74.5296
1299.4432	 74.5529
1299.9091	 74.5727
1300.3750	 74.5891
1300.8409	 74.6021
1301.3068	 74.6118
1301.7727	 74.6182
1302.2387	 74.6214
1302.7046	 74.6216
1303.1705	 74.6190
1303.6364	 74.6138
1304.1023	 74.6061
1304.5682	 74.5962
1305.0342	 74.5844
1305.5001	 74.5708
1305.9660	 74.5558
1306.4319	 74.5396
1306.8978	 74.5226
1307.3637	 74.5049
1307.8297	 74.4869
1308.2956	 74.4689
1308.7615	 74.4510
1309.2274	 74.4335
1309.6933	 74.4167
1310.1592	 74.4006
1310.6252	 74.3857
1311.0911	 74.3718
1311.5570	 74.3593
1312.0229	 74.3483
1312.4888	 74.3387
1312.9548	 74.3308
1313.4207	 74.3245
1313.8866	 74.3199
1314.3525	 74.3169
1314.8184	 74.3157
1315.2843	 74.3162
1315.7503	 74.3183
1316.2162	 74.3221
1316.6821	 74.3274
1317.1480	 74.3343
1317.6139	 74.3426
1318.0798	 74.3522
1318.5458	 74.3632
1319.0117	 74.3754
1319.4776	 74.3887
1319.9435	 74.4030
1320.4094	 74.4183
1320.8753	 74.4344
1321.3413	 74.4513
1321.8072	 74.4688
1322.2731	 74.4867
1322.7390	 74.5051
1323.2049	 74.5238
1323.6708	 74.5426
1324.1368	 74.5615
1324.6027	 74.5803
1325.0686	 74.5990
1325.5345	 74.6174
1326.0004	 74.6354
1326.4664	 74.6530
1326.9323	 74.6700
1327.3982	 74.6864
1327.8641	 74.7022
1328.3300	 74.7173
1328.7959	 74.7317
1329.2619	 74.7454
1329.7278	 74.7583
1330.1937	 74.7706
1330.6596	 74.7822
1331.1255	 74.7933
1331.5914	 74.8039
1332.0574	 74.8141
1332.5233	 74.8240
1332.9892	 74.8338
1333.4551	 74.8435
1333.9210	 74.8533
1334.3869	 74.8632
1334.8529	 74.8735
1335.3188	 74.8843
1335.7847	 74.8955
1336.2506	 74.9074
1336.7165	 74.9199
1337.1824	 74.9330
1337.6484	 74.9468
1338.1143	 74.9613
1338.5802	 74.9763
1339.0461	 74.9917
1339.5120	 75.0074
1339.9780	 75.0233
1340.4439	 75.0391
1340.9098	 75.0547
1341.3757	 75.0699
1341.8416	 75.0843
1342.3075	 75.0979
1342.7735	 75.1103
1343.2394	 75.1214
1343.7053	 75.1309
1344.1712	 75.1388
1344.6371	 75.1448
1345.1030	 75.1488
1345.5690	 75.1507
1346.0349	 75.1505
1346.5008	 75.1480
1346.9667	 75.1434
1347.4326	 75.1365
1347.8985	 75.1275
1348.3645	 75.1164
1348.8304	 75.1033
1349.2963	 75.0884
1349.7622	 75.0717
1350.2281	 75.0534
1350.6940	 75.0336
1351.1600	 75.0127
1351.6259	 74.9907
1352.0918	 74.9678
1352.5577	 74.9443
1353.0236	 74.9203
1353.4896	 74.8962
1353.9555	 74.8720
1354.4214	 74.8480
1354.8873	 74.8245
1355.3532	 74.8015
1355.8191	 74.7794
1356.2851	 74.7582
1356.7510	 74.7383
1357.2169	 74.7197
1357.6828	 74.7026
1358.1487	 74.6872
1358.6146	 74.6736
1359.0806	 74.6620
1359.5465	 74.6525
1360.0124	 74.6452
1360.4783	 74.6402
1360.9442	 74.6377
1361.4101	 74.6378
1361.8761	 74.6405
1362.3420	 74.6459
1362.8079	 74.6542
1363.2738	 74.6653
1363.7397	 74.6794
1364.2056	 74.6965
1364.6716	 74.7167
1365.1375	 74.7399
1365.6034	 74.7663
1366.0693	 74.7957
1366.5352	 74.8281
1367.0012	 74.8636
1367.4671	 74.9021
1367.9330	 74.9435
1368.3989	 74.9876
1368.8648	 75.0343
1369.3307	 75.0836
1369.7967	 75.1352
1370.2626	 75.1890
1370.7285	 75.2447
1371.1944	 75.3021
1371.6603	 75.3610
1372.1262	 75.4210
1372.5922	 75.4821
1373.0581	 75.5438
1373.5240	 75.6059
1373.9899	 75.6682
1374.4558	 75.7303
1374.9217	 75.7919
1375.3877	 75.8529
1375.8536	 75.9130
1376.3195	 75.9718
1376.7854	 76.0292
1377.2513	 76.0850
1377.7172	 76.1390
1378.1832	 76.1909
1378.6491	 76.2407
1379.1150	 76.2882
1379.5809	 76.3333
1380.0468	 76.3759
1380.5128	 76.4159
1380.9787	 76.4532
1381.4446	 76.4879
1381.9105	 76.5198
1382.3764	 76.5491
1382.8423	 76.5756
1383.3083	 76.5994
1383.7742	 76.6205
1384.2401	 76.6390
1384.7060	 76.6550
1385.1719	 76.6684
1385.6378	 76.6794
1386.1038	 76.6881
1386.5697	 76.6945
1387.0356	 76.6989
1387.5015	 76.7012
1387.9674	 76.7018
1388.4333	 76.7006
1388.8993	 76.6980
1389.3652	 76.6940
1389.8311	 76.6890
1390.2970	 76.6831
1390.7629	 76.6765
1391.2288	 76.6696
1391.6948	 76.6626
1392.1607	 76.6558
1392.6266	 76.6494
1393.0925	 76.6437
1393.5584	 76.6389
1394.0244	 76.6353
1394.4903	 76.6332
1394.9562	 76.6326
1395.4221	 76.6338
1395.8880	 76.6368
1396.3539	 76.6417
1396.8199	 76.6485
1397.2858	 76.6571
1397.7517	 76.6674
1398.2176	 76.6792
1398.6835	 76.6924
1399.1494	 76.7065
1399.6154	 76.7214
1400.0813	 76.7366
1400.5472	 76.7518
1401.0131	 76.7665
1401.4790	 76.7804
1401.9449	 76.7931
1402.4109	 76.8040
1402.8768	 76.8129
1403.3427	 76.8193
1403.8086	 76.8228
1404.2745	 76.8231
1404.7404	 76.8197
1405.2064	 76.8124
1405.6723	 76.8008
1406.1382	 76.7847
1406.6041	 76.7637
1407.0700	 76.7376
1407.5360	 76.7061
1408.0019	 76.6689
1408.4678	 76.6260
1408.9337	 76.5770
1409.3996	 76.5218
1409.8655	 76.4603
1410.3315	 76.3923
1410.7974	 76.3179
1411.2633	 76.2370
1411.7292	 76.1498
1412.1951	 76.0562
1412.6610	 75.9566
1413.1270	 75.8514
1413.5929	 75.7408
1414.0588	 75.6255
1414.5247	 75.5061
1414.9906	 75.3834
1415.4565	 75.2583
1415.9225	 75.1318
1416.3884	 75.0049
1416.8543	 74.8788
1417.3202	 74.7548
1417.7861	 74.6339
1418.2520	 74.5176
1418.7180	 74.4068
1419.1839	 74.3027
1419.6498	 74.2064
1420.1157	 74.1188
1420.5816	 74.0405
1421.0476	 73.9723
1421.5135	 73.9145
1421.9794	 73.8676
1422.4453	 73.8317
1422.9112	 73.8068
1423.3771	 73.7929
1423.8431	 73.7897
1424.3090	 73.7970
1424.7749	 73.8144
1425.2408	 73.8414
1425.7067	 73.8776
1426.1726	 73.9223
1426.6386	 73.9750
1427.1045	 74.0351
1427.5704	 74.1017
1428.0363	 74.1742
1428.5022	 74.2517
1428.9681	 74.3335
1429.4341	 74.4186
1429.9000	 74.5061
1430.3659	 74.5949
1430.8318	 74.6840
1431.2977	 74.7724
1431.7636	 74.8587
1432.2296	 74.9420
1432.6955	 75.0210
1433.1614	 75.0945
1433.6273	 75.1613
1434.0932	 75.2206
1434.5592	 75.2711
1435.0251	 75.3122
1435.4910	 75.3431
1435.9569	 75.3632
1436.4228	 75.3723
1436.8887	 75.3701
1437.3547	 75.3568
1437.8206	 75.3326
1438.2865	 75.2978
1438.7524	 75.2530
1439.2183	 75.1991
1439.6842	 75.1367
1440.1502	 75.0667
1440.6161	 74.9900
1441.0820	 74.9076
1441.5479	 74.8204
1442.0138	 74.7293
1442.4797	 74.6350
1442.9457	 74.5383
1443.4116	 74.4400
1443.8775	 74.3407
1444.3434	 74.2408
1444.8093	 74.1410
1445.2752	 74.0416
1445.7412	 73.9430
1446.2071	 73.8455
1446.6730	 73.7494
1447.1389	 73.6550
1447.6048	 73.5626
1448.0707	 73.4724
1448.5367	 73.3848
1449.0026	 73.2999
1449.4685	 73.2181
1449.9344	 73.1398
1450.4003	 73.0654
1450.8663	 72.9954
1451.3322	 72.9302
1451.7981	 72.8703
1452.2640	 72.8163
1452.7299	 72.7687
1453.1958	 72.7281
1453.6618	 72.6950
1454.1277	 72.6698
1454.5936	 72.6529
1455.0595	 72.6446
1455.5254	 72.6450
1455.9913	 72.6542
1456.4573	 72.6720
1456.9232	 72.6983
1457.3891	 72.7326
1457.8550	 72.7747
1458.3209	 72.8240
1458.7868	 72.8799
1459.2528	 72.9421
1459.7187	 73.0100
1460.1846	 73.0831
1460.6505	 73.1611
1461.1164	 73.2436
1461.5823	 73.3304
1462.0483	 73.4215
1462.5142	 73.5167
1462.9801	 73.6161
1463.4460	 73.7198
1463.9119	 73.8280
1464.3779	 73.9410
1464.8438	 74.0591
1465.3097	 74.1825
1465.7756	 74.3116
1466.2415	 74.4467
1466.7074	 74.5880
1467.1734	 74.7358
1467.6393	 74.8901
1468.1052	 75.0510
1468.5711	 75.2184
1469.0370	 75.3921
1469.5029	 75.5715
1469.9689	 75.7561
1470.4348	 75.9452
1470.9007	 76.1377
1471.3666	 76.3326
1471.8325	 76.5286
1472.2984	 76.7244
1472.7644	 76.9185
1473.2303	 77.1094
1473.6962	 77.2958
1474.1621	 77.4763
1474.6280	 77.6495
1475.0939	 77.8143
1475.5599	 77.9698
1476.0258	 78.1151
1476.4917	 78.2495
1476.9576	 78.3727
1477.4235	 78.4844
1477.8895	 78.5844
1478.3554	 78.6728
1478.8213	 78.7496
1479.2872	 78.8152
1479.7531	 78.8698
1480.2190	 78.9137
1480.6850	 78.9473
1481.1509	 78.9708
1481.6168	 78.9847
1482.0827	 78.9892
1482.5486	 78.9847
1483.0145	 78.9714
1483.4805	 78.9496
1483.9464	 78.9195
1484.4123	 78.8814
1484.8782	 78.8354
1485.3441	 78.7819
1485.8100	 78.7210
1486.2760	 78.6530
1486.7419	 78.5783
1487.2078	 78.4972
1487.6737	 78.4101
1488.1396	 78.3176
1488.6055	 78.2201
1489.0715	 78.1182
1489.5374	 78.0126
1490.0033	 77.9039
1490.4692	 77.7927
1490.9351	 77.6797
1491.4011	 77.5656
1491.8670	 77.4508
1492.3329	 77.3360
1492.7988	 77.2216
1493.2647	 77.1078
1493.7306	 76.9950
1494.1966	 76.8833
1494.6625	 76.7725
1495.1284	 76.6627
1495.5943	 76.5536
1496.0602	 76.4449
1496.5261	 76.3361
1496.9921	 76.2267
1497.4580	 76.1163
1497.9239	 76.0041
1498.3898	 75.8896
1498.8557	 75.7722
1499.3216	 75.6513
1499.7876	 75.5262
1500.2535	 75.3965
1500.7194	 75.2619
1501.1853	 75.1220
1501.6512	 74.9768
1502.1171	 74.8264
1502.5831	 74.6709
1503.0490	 74.5108
1503.5149	 74.3470
1503.9808	 74.1803
1504.4467	 74.0119
1504.9127	 73.8432
1505.3786	 73.6758
1505.8445	 73.5115
1506.3104	 73.3523
1506.7763	 73.2001
1507.2422	 73.0570
1507.7082	 72.9252
1508.1741	 72.8066
1508.6400	 72.7033
1509.1059	 72.6171
1509.5718	 72.5498
1510.0377	 72.5030
1510.5037	 72.4782
1510.9696	 72.4767
1511.4355	 72.4997
1511.9014	 72.5484
1512.3673	 72.6236
1512.8332	 72.7261
1513.2992	 72.8568
1513.7651	 73.0162
1514.2310	 73.2047
1514.6969	 73.4226
1515.1628	 73.6701
1515.6287	 73.9471
1516.0947	 74.2529
1516.5606	 74.5871
1517.0265	 74.9483
1517.4924	 75.3351
1517.9583	 75.7454
1518.4243	 76.1768
1518.8902	 76.6262
1519.3561	 77.0904
1519.8220	 77.5654
1520.2879	 78.0471
1520.7538	 78.5312
1521.2198	 79.0132
1521.6857	 79.4888
1522.1516	 79.9536
1522.6175	 80.4038
1523.0834	 80.8360
1523.5493	 81.2470
1524.0153	 81.6345
1524.4812	 81.9968
1524.9471	 82.3325
1525.4130	 82.6412
1525.8789	 82.9228
1526.3448	 83.1776
1526.8108	 83.4066
1527.2767	 83.6109
1527.7426	 83.7918
1528.2085	 83.9509
1528.6744	 84.0900
1529.1403	 84.2107
1529.6063	 84.3148
1530.0722	 84.4038
1530.5381	 84.4795
1531.0040	 84.5433
1531.4699	 84.5966
1531.9359	 84.6406
1532.4018	 84.6765
1532.8677	 84.7052
1533.3336	 84.7275
1533.7995	 84.7442
1534.2654	 84.7558
1534.7314	 84.7627
1535.1973	 84.7653
1535.6632	 84.7639
1536.1291	 84.7585
1536.5950	 84.7493
1537.0609	 84.7364
1537.5269	 84.7200
1537.9928	 84.6999
1538.4587	 84.6766
1538.9246	 84.6501
1539.3905	 84.6207
1539.8564	 84.5889
1540.3224	 84.5551
1540.7883	 84.5197
1541.2542	 84.4833
1541.7201	 84.4465
1542.1860	 84.4097
1542.6519	 84.3735
1543.1179	 84.3382
1543.5838	 84.3041
1544.0497	 84.2716
1544.5156	 84.2408
1544.9815	 84.2117
1545.4475	 84.1843
1545.9134	 84.1585
1546.3793	 84.1340
1546.8452	 84.1107
1547.3111	 84.0881
1547.7770	 84.0659
1548.2430	 84.0436
1548.7089	 84.0207
1549.1748	 83.9966
1549.6407	 83.9708
1550.1066	 83.9426
1550.5725	 83.9113
1551.0385	 83.8762
1551.5044	 83.8366
1551.9703	 83.7917
1552.4362	 83.7409
1552.9021	 83.6835
1553.3680	 83.6187
1553.8340	 83.5463
1554.2999	 83.4657
1554.7658	 83.3768
1555.2317	 83.2796
1555.6976	 83.1745
1556.1635	 83.0620
1556.6295	 82.9430
1557.0954	 82.8187
1557.5613	 82.6903
1558.0272	 82.5595
1558.4931	 82.4279
1558.9591	 82.2972
1559.4250	 82.1691
1559.8909	 82.0451
1560.3568	 81.9263
1560.8227	 81.8138
1561.2886	 81.7081
1561.7546	 81.6095
1562.2205	 81.5181
1562.6864	 81.4335
1563.1523	 81.3552
1563.6182	 81.2824
1564.0841	 81.2143
1564.5501	 81.1498
1565.0160	 81.0878
1565.4819	 81.0272
1565.9478	 80.9669
1566.4137	 80.9058
1566.8796	 80.8428
1567.3456	 80.7769
1567.8115	 80.7071
1568.2774	 80.6325
1568.7433	 80.5523
1569.2092	 80.4658
1569.6751	 80.3724
1570.1411	 80.2715
1570.6070	 80.1629
1571.0729	 80.0463
1571.5388	 79.9217
1572.0047	 79.7890
1572.4707	 79.6487
1572.9366	 79.5011
1573.4025	 79.3469
1573.8684	 79.1869
1574.3343	 79.0219
1574.8002	 78.8530
1575.2662	 78.6813
1575.7321	 78.5082
1576.1980	 78.3346
1576.6639	 78.1620
1577.1298	 77.9913
1577.5957	 77.8237
1578.0617	 77.6600
1578.5276	 77.5010
1578.9935	 77.3473
1579.4594	 77.1992
1579.9253	 77.0572
1580.3912	 76.9212
1580.8572	 76.7912
1581.3231	 76.6670
1581.7890	 76.5485
1582.2549	 76.4352
1582.7208	 76.3269
1583.1867	 76.2231
1583.6527	 76.1234
1584.1186	 76.0275
1584.5845	 75.9350
1585.0504	 75.8455
1585.5163	 75.7590
1585.9822	 75.6752
1586.4482	 75.5939
1586.9141	 75.5151
1587.3800	 75.4388
1587.8459	 75.3651
1588.3118	 75.2940
1588.7778	 75.2259
1589.2437	 75.1608
1589.7096	 75.0990
1590.1755	 75.0409
1590.6414	 74.9866
1591.1073	 74.9364
1591.5733	 74.8906
1592.0392	 74.8495
1592.5051	 74.8132
1592.9710	 74.7820
1593.4369	 74.7558
1593.9028	 74.7349
1594.3688	 74.7191
1594.8347	 74.7085
1595.3006	 74.7030
1595.7665	 74.7023
1596.2324	 74.7063
1596.6983	 74.7147
1597.1643	 74.7273
1597.6302	 74.7438
1598.0961	 74.7638
1598.5620	 74.7872
1599.0279	 74.8136
1599.4938	 74.8427
1599.9598	 74.8743
1600.4257	 74.9083
1600.8916	 74.9443
1601.3575	 74.9824
1601.8234	 75.0223
1602.2894	 75.0641
1602.7553	 75.1076
1603.2212	 75.1530
1603.6871	 75.2001
1604.1530	 75.2490
1604.6189	 75.2998
1605.0849	 75.3526
1605.5508	 75.4074
1606.0167	 75.4643
1606.4826	 75.5234
1606.9485	 75.5847
1607.4144	 75.6484
1607.8804	 75.7144
1608.3463	 75.7828
1608.8122	 75.8536
1609.2781	 75.9268
1609.7440	 76.0023
1610.2099	 76.0802
1610.6759	 76.1603
1611.1418	 76.2425
1611.6077	 76.3268
1612.0736	 76.4129
1612.5395	 76.5007
1613.0054	 76.5901
1613.4714	 76.6807
1613.9373	 76.7723
1614.4032	 76.8647
1614.8691	 76.9576
1615.3350	 77.0506
1615.8010	 77.1435
1616.2669	 77.2360
1616.7328	 77.3277
1617.1987	 77.4183
1617.6646	 77.5075
1618.1305	 77.5949
1618.5965	 77.6803
1619.0624	 77.7635
1619.5283	 77.8441
1619.9942	 77.9219
1620.4601	 77.9968
1620.9260	 78.0685
1621.3920	 78.1370
1621.8579	 78.2021
1622.3238	 78.2636
1622.7897	 78.3217
1623.2556	 78.3761
1623.7215	 78.4270
1624.1875	 78.4743
1624.6534	 78.5180
1625.1193	 78.5582
1625.5852	 78.5949
1626.0511	 78.6283
1626.5170	 78.6584
1626.9830	 78.6854
1627.4489	 78.7094
1627.9148	 78.7306
1628.3807	 78.7491
1628.8466	 78.7653
1629.3126	 78.7792
1629.7785	 78.7912
1630.2444	 78.8016
1630.7103	 78.8105
1631.1762	 78.8183
1631.6421	 78.8253
1632.1081	 78.8317
1632.5740	 78.8378
1633.0399	 78.8438
1633.5058	 78.8500
1633.9717	 78.8565
1634.4376	 78.8635
1634.9036	 78.8710
1635.3695	 78.8791
1635.8354	 78.8879
1636.3013	 78.8971
1636.7672	 78.9068
1637.2331	 78.9168
1637.6991	 78.9270
1638.1650	 78.9370
1638.6309	 78.9467
1639.0968	 78.9559
1639.5627	 78.9642
1640.0286	 78.9714
1640.4946	 78.9773
1640.9605	 78.9816
1641.4264	 78.9840
1641.8923	 78.9844
1642.3582	 78.9826
1642.8242	 78.9785
1643.2901	 78.9719
1643.7560	 78.9628
1644.2219	 78.9512
1644.6878	 78.9373
1645.1537	 78.9213
1645.6197	 78.9033
1646.0856	 78.8837
1646.5515	 78.8631
1647.0174	 78.8419
1647.4833	 78.8207
1647.9492	 78.8003
1648.4152	 78.7814
1648.8811	 78.7649
1649.3470	 78.7514
1649.8129	 78.7417
1650.2788	 78.7365
1650.7447	 78.7363
1651.2107	 78.7416
1651.6766	 78.7524
1652.1425	 78.7689
1652.6084	 78.7910
1653.0743	 78.8183
1653.5402	 78.8505
1654.0062	 78.8870
1654.4721	 78.9272
1654.9380	 78.9706
1655.4039	 79.0164
1655.8698	 79.0641
1656.3358	 79.1131
1656.8017	 79.1629
1657.2676	 79.2131
1657.7335	 79.2633
1658.1994	 79.3131
1658.6653	 79.3625
1659.1313	 79.4112
1659.5972	 79.4590
1660.0631	 79.5060
1660.5290	 79.5521
1660.9949	 79.5973
1661.4608	 79.6416
1661.9268	 79.6851
1662.3927	 79.7279
1662.8586	 79.7699
1663.3245	 79.8112
1663.7904	 79.8520
1664.2563	 79.8922
1664.7223	 79.9318
1665.1882	 79.9708
1665.6541	 80.0093
1666.1200	 80.0471
1666.5859	 80.0842
1667.0518	 80.1205
1667.5178	 80.1559
1667.9837	 80.1901
1668.4496	 80.2230
1668.9155	 80.2545
1669.3814	 80.2843
1669.8474	 80.3123
1670.3133	 80.3382
1670.7792	 80.3618
1671.2451	 80.3832
1671.7110	 80.4020
1672.1769	 80.4182
1672.6429	 80.4317
1673.1088	 80.4425
1673.5747	 80.4507
1674.0406	 80.4564
1674.5065	 80.4595
1674.9724	 80.4603
1675.4384	 80.4590
1675.9043	 80.4558
1676.3702	 80.4509
1676.8361	 80.4446
1677.3020	 80.4372
1677.7679	 80.4290
1678.2339	 80.4203
1678.6998	 80.4114
1679.1657	 80.4026
1679.6316	 80.3941
1680.0975	 80.3862
1680.5634	 80.3791
1681.0294	 80.3729
1681.4953	 80.3677
1681.9612	 80.3637
1682.4271	 80.3609
1682.8930	 80.3591
1683.3590	 80.3585
1683.8249	 80.3589
1684.2908	 80.3602
1684.7567	 80.3623
1685.2226	 80.3650
1685.6885	 80.3681
1686.1545	 80.3714
1686.6204	 80.3749
1687.0863	 80.3783
1687.5522	 80.3815
1688.0181	 80.3843
1688.4840	 80.3867
1688.9500	 80.3886
1689.4159	 80.3898
1689.8818	 80.3904
1690.3477	 80.3903
1690.8136	 80.3896
1691.2795	 80.3883
1691.7455	 80.3864
1692.2114	 80.3841
1692.6773	 80.3816
1693.1432	 80.3789
1693.6091	 80.3762
1694.0750	 80.3738
1694.5410	 80.3718
1695.0069	 80.3706
1695.4728	 80.3703
1695.9387	 80.3711
1696.4046	 80.3733
1696.8706	 80.3771
1697.3365	 80.3827
1697.8024	 80.3901
1698.2683	 80.3994
1698.7342	 80.4107
1699.2001	 80.4239
1699.6661	 80.4390
1700.1320	 80.4558
1700.5979	 80.4742
1701.0638	 80.4941
1701.5297	 80.5152
1701.9956	 80.5374
1702.4616	 80.5607
1702.9275	 80.5848
1703.3934	 80.6098
1703.8593	 80.6356
1704.3252	 80.6623
1704.7911	 80.6899
1705.2571	 80.7186
1705.7230	 80.7485
1706.1889	 80.7800
1706.6548	 80.8133
1707.1207	 80.8488
1707.5866	 80.8867
1708.0526	 80.9274
1708.5185	 80.9714
1708.9844	 81.0191
1709.4503	 81.0710
1709.9162	 81.1274
1710.3822	 81.1887
1710.8481	 81.2554
1711.3140	 81.3277
1711.7799	 81.4059
1712.2458	 81.4903
1712.7117	 81.5808
1713.1777	 81.6775
1713.6436	 81.7801
1714.1095	 81.8884
1714.5754	 82.0019
1715.0413	 82.1199
1715.5072	 82.2418
1715.9732	 82.3666
1716.4391	 82.4934
1716.9050	 82.6212
1717.3709	 82.7489
1717.8368	 82.8757
1718.3027	 83.0006
1718.7687	 83.1227
1719.2346	 83.2414
1719.7005	 83.3562
1720.1664	 83.4665
1720.6323	 83.5722
1721.0982	 83.6732
1721.5642	 83.7695
1722.0301	 83.8614
1722.4960	 83.9490
1722.9619	 84.0329
1723.4278	 84.1133
1723.8937	 84.1907
1724.3597	 84.2658
1724.8256	 84.3389
1725.2915	 84.4107
1725.7574	 84.4816
1726.2233	 84.5521
1726.6893	 84.6228
1727.1552	 84.6939
1727.6211	 84.7660
1728.0870	 84.8393
1728.5529	 84.9142
1729.0188	 84.9909
1729.4848	 85.0696
1729.9507	 85.1502
1730.4166	 85.2329
1730.8825	 85.3176
1731.3484	 85.4041
1731.8143	 85.4923
1732.2803	 85.5818
1732.7462	 85.6723
1733.2121	 85.7634
1733.6780	 85.8546
1734.1439	 85.9455
1734.6098	 86.0355
1735.0758	 86.1243
1735.5417	 86.2114
1736.0076	 86.2965
1736.4735	 86.3791
1736.9394	 86.4591
1737.4053	 86.5364
1737.8713	 86.6108
1738.3372	 86.6823
1738.8031	 86.7510
1739.2690	 86.8170
1739.7349	 86.8805
1740.2009	 86.9417
1740.6668	 87.0008
1741.1327	 87.0581
1741.5986	 87.1139
1742.0645	 87.1684
1742.5304	 87.2219
1742.9964	 87.2746
1743.4623	 87.3268
1743.9282	 87.3786
1744.3941	 87.4304
1744.8600	 87.4821
1745.3259	 87.5341
1745.7919	 87.5864
1746.2578	 87.6391
1746.7237	 87.6923
1747.1896	 87.7461
1747.6555	 87.8005
1748.1214	 87.8555
1748.5874	 87.9113
1749.0533	 87.9677
1749.5192	 88.0247
1749.9851	 88.0824
1750.4510	 88.1406
1750.9169	 88.1992
1751.3829	 88.2583
1751.8488	 88.3177
1752.3147	 88.3774
1752.7806	 88.4371
1753.2465	 88.4969
1753.7125	 88.5565
1754.1784	 88.6159
1754.6443	 88.6749
1755.1102	 88.7335
1755.5761	 88.7915
1756.0420	 88.8488
1756.5080	 88.9053
1756.9739	 88.9609
1757.4398	 89.0155
1757.9057	 89.0691
1758.3716	 89.1216
1758.8375	 89.1729
1759.3035	 89.2230
1759.7694	 89.2719
1760.2353	 89.3196
1760.7012	 89.3661
1761.1671	 89.4115
1761.6330	 89.4557
1762.0990	 89.4990
1762.5649	 89.5412
1763.0308	 89.5827
1763.4967	 89.6234
1763.9626	 89.6636
1764.4285	 89.7034
1764.8945	 89.7428
1765.3604	 89.7822
1765.8263	 89.8217
1766.2922	 89.8613
1766.7581	 89.9013
1767.2241	 89.9419
1767.6900	 89.9830
1768.1559	 90.0248
1768.6218	 90.0673
1769.0877	 90.1106
1769.5536	 90.1545
1770.0196	 90.1990
1770.4855	 90.2440
1770.9514	 90.2894
1771.4173	 90.3348
1771.8832	 90.3802
1772.3491	 90.4252
1772.8151	 90.4696
1773.2810	 90.5132
1773.7469	 90.5557
1774.2128	 90.5970
1774.6787	 90.6367
1775.1446	 90.6749
1775.6106	 90.7113
1776.0765	 90.7459
1776.5424	 90.7787
1777.0083	 90.8097
1777.4742	 90.8389
1777.9401	 90.8666
1778.4061	 90.8927
1778.8720	 90.9174
1779.3379	 90.9410
1779.8038	 90.9636
1780.2697	 90.9854
1780.7357	 91.0067
1781.2016	 91.0277
1781.6675	 91.0485
1782.1334	 91.0694
1782.5993	 91.0906
1783.0652	 91.1121
1783.5312	 91.1343
1783.9971	 91.1570
1784.4630	 91.1806
1784.9289	 91.2049
1785.3948	 91.2300
1785.8607	 91.2560
1786.3267	 91.2826
1786.7926	 91.3099
1787.2585	 91.3377
1787.7244	 91.3659
1788.1903	 91.3942
1788.6562	 91.4225
1789.1222	 91.4506
1789.5881	 91.4781
1790.0540	 91.5050
1790.5199	 91.5308
1790.9858	 91.5556
1791.4517	 91.5789
1791.9177	 91.6007
1792.3836	 91.6209
1792.8495	 91.6394
1793.3154	 91.6561
1793.7813	 91.6711
1794.2473	 91.6843
1794.7132	 91.6959
1795.1791	 91.7061
1795.6450	 91.7149
1796.1109	 91.7226
1796.5768	 91.7294
1797.0428	 91.7354
1797.5087	 91.7409
1797.9746	 91.7460
1798.4405	 91.7509
1798.9064	 91.7559
1799.3723	 91.7610
1799.8383	 91.7663
1800.3042	 91.7720
1800.7701	 91.7780
1801.2360	 91.7845
1801.7019	 91.7913
1802.1678	 91.7985
1802.6338	 91.8061
1803.0997	 91.8139
1803.5656	 91.8220
1804.0315	 91.8302
1804.4974	 91.8385
1804.9633	 91.8468
1805.4293	 91.8550
1805.8952	 91.8631
1806.3611	 91.8711
1806.8270	 91.8788
1807.2929	 91.8864
1807.7589	 91.8937
1808.2248	 91.9009
1808.6907	 91.9079
1809.1566	 91.9149
1809.6225	 91.9219
1810.0884	 91.9289
1810.5544	 91.9361
1811.0203	 91.9435
1811.4862	 91.9511
1811.9521	 91.9592
1812.4180	 91.9677
1812.8839	 91.9766
1813.3499	 91.9860
1813.8158	 91.9960
1814.2817	 92.0063
1814.7476	 92.0172
1815.2135	 92.0283
1815.6794	 92.0398
1816.1454	 92.0514
1816.6113	 92.0630
1817.0772	 92.0744
1817.5431	 92.0856
1818.0090	 92.0963
1818.4749	 92.1063
1818.9409	 92.1155
1819.4068	 92.1238
1819.8727	 92.1310
1820.3386	 92.1369
1820.8045	 92.1416
1821.2705	 92.1449
1821.7364	 92.1468
1822.2023	 92.1473
1822.6682	 92.1466
1823.1341	 92.1447
1823.6000	 92.1419
1824.0660	 92.1381
1824.5319	 92.1338
1824.9978	 92.1291
1825.4637	 92.1243
1825.9296	 92.1197
1826.3955	 92.1154
1826.8615	 92.1118
1827.3274	 92.1091
1827.7933	 92.1074
1828.2592	 92.1068
1828.7251	 92.1075
1829.1910	 92.1095
1829.6570	 92.1128
1830.1229	 92.1173
1830.5888	 92.1229
1831.0547	 92.1294
1831.5206	 92.1367
1831.9865	 92.1446
1832.4525	 92.1528
1832.9184	 92.1611
1833.3843	 92.1692
1833.8502	 92.1770
1834.3161	 92.1840
1834.7821	 92.1902
1835.2480	 92.1954
1835.7139	 92.1994
1836.1798	 92.2020
1836.6457	 92.2033
1837.1116	 92.2030
1837.5776	 92.2014
1838.0435	 92.1983
1838.5094	 92.1938
1838.9753	 92.1882
1839.4412	 92.1815
1839.9071	 92.1740
1840.3731	 92.1659
1840.8390	 92.1574
1841.3049	 92.1488
1841.7708	 92.1405
1842.2367	 92.1325
1842.7026	 92.1253
1843.1686	 92.1189
1843.6345	 92.1138
1844.1004	 92.1099
1844.5663	 92.1073
1845.0322	 92.1063
1845.4981	 92.1066
1845.9641	 92.1084
1846.4300	 92.1114
1846.8959	 92.1156
1847.3618	 92.1206
1847.8277	 92.1264
1848.2937	 92.1326
1848.7596	 92.1390
1849.2255	 92.1453
1849.6914	 92.1513
1850.1573	 92.1567
1850.6232	 92.1615
1851.0892	 92.1654
1851.5551	 92.1683
1852.0210	 92.1702
1852.4869	 92.1710
1852.9528	 92.1708
1853.4187	 92.1695
1853.8847	 92.1674
1854.3506	 92.1644
1854.8165	 92.1608
1855.2824	 92.1568
1855.7483	 92.1524
1856.2142	 92.1480
1856.6802	 92.1436
1857.1461	 92.1395
1857.6120	 92.1358
1858.0779	 92.1328
1858.5438	 92.1305
1859.0097	 92.1291
1859.4757	 92.1286
1859.9416	 92.1291
1860.4075	 92.1306
1860.8734	 92.1331
1861.3393	 92.1365
1861.8052	 92.1407
1862.2712	 92.1456
1862.7371	 92.1510
1863.2030	 92.1568
1863.6689	 92.1627
1864.1348	 92.1686
1864.6008	 92.1742
1865.0667	 92.1793
1865.5326	 92.1838
1865.9985	 92.1875
1866.4644	 92.1903
1866.9303	 92.1921
1867.3963	 92.1929
1867.8622	 92.1927
1868.3281	 92.1915
1868.7940	 92.1895
1869.2599	 92.1868
1869.7258	 92.1836
1870.1918	 92.1801
1870.6577	 92.1764
1871.1236	 92.1729
1871.5895	 92.1697
1872.0554	 92.1671
1872.5213	 92.1651
1872.9873	 92.1640
1873.4532	 92.1638
1873.9191	 92.1647
1874.3850	 92.1666
1874.8509	 92.1696
1875.3168	 92.1736
1875.7828	 92.1786
1876.2487	 92.1843
1876.7146	 92.1907
1877.1805	 92.1977
1877.6464	 92.2049
1878.1124	 92.2123
1878.5783	 92.2196
1879.0442	 92.2267
1879.5101	 92.2334
1879.9760	 92.2395
1880.4419	 92.2448
1880.9079	 92.2494
1881.3738	 92.2531
1881.8397	 92.2558
1882.3056	 92.2576
1882.7715	 92.2585
1883.2374	 92.2586
1883.7034	 92.2581
1884.1693	 92.2569
1884.6352	 92.2554
1885.1011	 92.2538
1885.5670	 92.2522
1886.0329	 92.2509
1886.4989	 92.2501
1886.9648	 92.2500
1887.4307	 92.2508
1887.8966	 92.2527
1888.3625	 92.2558
1888.8284	 92.2601
1889.2944	 92.2658
1889.7603	 92.2729
1890.2262	 92.2812
1890.6921	 92.2906
1891.1580	 92.3011
1891.6240	 92.3124
1892.0899	 92.3243
1892.5558	 92.3365
1893.0217	 92.3489
1893.4876	 92.3612
1893.9535	 92.3731
1894.4195	 92.3845
1894.8854	 92.3951
1895.3513	 92.4048
1895.8172	 92.4136
1896.2831	 92.4212
1896.7490	 92.4278
1897.2150	 92.4333
1897.6809	 92.4379
1898.1468	 92.4417
1898.6127	 92.4447
1899.0786	 92.4473
1899.5445	 92.4496
1900.0105	 92.4520
1900.4764	 92.4545
1900.9423	 92.4574
1901.4082	 92.4611
1901.8741	 92.4656
1902.3400	 92.4711
1902.8060	 92.4778
1903.2719	 92.4857
1903.7378	 92.4950
1904.2037	 92.5055
1904.6696	 92.5172
1905.1356	 92.5300
1905.6015	 92.5437
1906.0674	 92.5581
1906.5333	 92.5729
1906.9992	 92.5879
1907.4651	 92.6027
1907.9311	 92.6170
1908.3970	 92.6305
1908.8629	 92.6430
1909.3288	 92.6541
1909.7947	 92.6637
1910.2606	 92.6715
1910.7266	 92.6774
1911.1925	 92.6814
1911.6584	 92.6834
1912.1243	 92.6836
1912.5902	 92.6821
1913.0561	 92.6792
1913.5221	 92.6751
1913.9880	 92.6701
1914.4539	 92.6647
1914.9198	 92.6593
1915.3857	 92.6543
1915.8516	 92.6501
1916.3176	 92.6473
1916.7835	 92.6462
1917.2494	 92.6471
1917.7153	 92.6505
1918.1812	 92.6565
1918.6472	 92.6654
1919.1131	 92.6771
1919.5790	 92.6918
1920.0449	 92.7093
1920.5108	 92.7295
1920.9767	 92.7521
1921.4427	 92.7767
1921.9086	 92.8030
1922.3745	 92.8306
1922.8404	 92.8589
1923.3063	 92.8875
1923.7722	 92.9159
1924.2382	 92.9437
1924.7041	 92.9704
1925.1700	 92.9957
1925.6359	 93.0192
1926.1018	 93.0406
1926.5677	 93.0600
1927.0337	 93.0771
1927.4996	 93.0919
1927.9655	 93.1047
1928.4314	 93.1154
1928.8973	 93.1244
1929.3632	 93.1320
1929.8292	 93.1385
1930.2951	 93.1443
1930.7610	 93.1499
1931.2269	 93.1556
1931.6928	 93.1620
1932.1588	 93.1694
1932.6247	 93.1782
1933.0906	 93.1887
1933.5565	 93.2013
1934.0224	 93.2162
1934.4883	 93.2335
1934.9543	 93.2532
1935.4202	 93.2755
1935.8861	 93.3001
1936.3520	 93.3269
1936.8179	 93.3557
1937.2838	 93.3860
1937.7498	 93.4176
1938.2157	 93.4501
1938.6816	 93.4829
1939.1475	 93.5157
1939.6134	 93.5480
1940.0793	 93.5794
1940.5453	 93.6096
1941.0112	 93.6382
1941.4771	 93.6651
1941.9430	 93.6901
1942.4089	 93.7131
1942.8748	 93.7342
1943.3408	 93.7535
1943.8067	 93.7713
1944.2726	 93.7878
1944.7385	 93.8035
1945.2044	 93.8187
1945.6704	 93.8339
1946.1363	 93.8496
1946.6022	 93.8661
1947.0681	 93.8841
1947.5340	 93.9037
1947.9999	 93.9256
1948.4659	 93.9498
1948.9318	 93.9766
1949.3977	 94.0062
1949.8636	 94.0385
1950.3295	 94.0737
1950.7954	 94.1114
1951.2614	 94.1516
1951.7273	 94.1940
1952.1932	 94.2383
1952.6591	 94.2841
1953.1250	 94.3310
1953.5909	 94.3787
1954.0569	 94.4268
1954.5228	 94.4750
1954.9887	 94.5229
1955.4546	 94.5704
1955.9205	 94.6172
1956.3864	 94.6632
1956.8524	 94.7085
1957.3183	 94.7530
1957.7842	 94.7970
1958.2501	 94.8407
1958.7160	 94.8844
1959.1820	 94.9285
1959.6479	 94.9735
1960.1138	 95.0198
1960.5797	 95.0679
1961.0456	 95.1183
1961.5115	 95.1715
1961.9775	 95.2278
1962.4434	 95.2875
1962.9093	 95.3509
1963.3752	 95.4182
1963.8411	 95.4891
1964.3070	 95.5637
1964.7730	 95.6415
1965.2389	 95.7221
1965.7048	 95.8050
1966.1707	 95.8892
1966.6366	 95.9741
1967.1025	 96.0586
1967.5685	 96.1418
1968.0344	 96.2227
1968.5003	 96.3001
1968.9662	 96.3732
1969.4321	 96.4410
1969.8980	 96.5026
1970.3640	 96.5575
1970.8299	 96.6049
1971.2958	 96.6446
1971.7617	 96.6763
1972.2276	 96.7001
1972.6936	 96.7159
1973.1595	 96.7242
1973.6254	 96.7253
1974.0913	 96.7199
1974.5572	 96.7087
1975.0231	 96.6925
1975.4891	 96.6720
1975.9550	 96.6480
1976.4209	 96.6214
1976.8868	 96.5929
1977.3527	 96.5632
1977.8186	 96.5328
1978.2846	 96.5023
1978.7505	 96.4719
1979.2164	 96.4421
1979.6823	 96.4127
1980.1482	 96.3839
1980.6141	 96.3557
1981.0801	 96.3277
1981.5460	 96.3000
1982.0119	 96.2721
1982.4778	 96.2439
1982.9437	 96.2151
1983.4096	 96.1856
1983.8756	 96.1551
1984.3415	 96.1235
1984.8074	 96.0909
1985.2733	 96.0572
1985.7392	 96.0225
1986.2052	 95.9872
1986.6711	 95.9513
1987.1370	 95.9153
1987.6029	 95.8797
1988.0688	 95.8447
1988.5347	 95.8111
1989.0007	 95.7791
1989.4666	 95.7495
1989.9325	 95.7226
1990.3984	 95.6990
1990.8643	 95.6792
1991.3302	 95.6634
1991.7962	 95.6520
1992.2621	 95.6452
1992.7280	 95.6430
1993.1939	 95.6456
1993.6598	 95.6527
1994.1257	 95.6643
1994.5917	 95.6799
1995.0576	 95.6992
1995.5235	 95.7217
1995.9894	 95.7470
1996.4553	 95.7743
1996.9212	 95.8031
1997.3872	 95.8329
1997.8531	 95.8631
1998.3190	 95.8931
1998.7849	 95.9225
1999.2508	 95.9509
1999.7167	 95.9780
2000.1827	 96.0037
2000.6486	 96.0279
2001.1145	 96.0506
2001.5804	 96.0720
2002.0463	 96.0925
2002.5123	 96.1123
2002.9782	 96.1319
2003.4441	 96.1519
2003.9100	 96.1729
2004.3759	 96.1954
2004.8418	 96.2202
2005.3078	 96.2477
2005.7737	 96.2785
2006.2396	 96.3131
2006.7055	 96.3517
2007.1714	 96.3945
2007.6373	 96.4417
2008.1033	 96.4930
2008.5692	 96.5481
2009.0351	 96.6066
2009.5010	 96.6678
2009.9669	 96.7308
2010.4328	 96.7949
2010.8988	 96.8589
2011.3647	 96.9218
2011.8306	 96.9825
2012.2965	 97.0400
2012.7624	 97.0934
2013.2283	 97.1416
2013.6943	 97.1841
2014.1602	 97.2202
2014.6261	 97.2495
2015.0920	 97.2720
2015.5579	 97.2875
2016.0239	 97.2963
2016.4898	 97.2988
2016.9557	 97.2956
2017.4216	 97.2875
2017.8875	 97.2753
2018.3534	 97.2600
2018.8194	 97.2427
2019.2853	 97.2244
2019.7512	 97.2062
2020.2171	 97.1892
2020.6830	 97.1744
2021.1489	 97.1626
2021.6149	 97.1548
2022.0808	 97.1514
2022.5467	 97.1530
2023.0126	 97.1598
2023.4785	 97.1719
2023.9444	 97.1891
2024.4104	 97.2111
2024.8763	 97.2374
2025.3422	 97.2673
2025.8081	 97.3000
2026.2740	 97.3345
2026.7399	 97.3698
2027.2059	 97.4050
2027.6718	 97.4389
2028.1377	 97.4707
2028.6036	 97.4993
2029.0695	 97.5241
2029.5355	 97.5443
2030.0014	 97.5593
2030.4673	 97.5690
2030.9332	 97.5731
2031.3991	 97.5715
2031.8650	 97.5644
2032.3310	 97.5520
2032.7969	 97.5348
2033.2628	 97.5132
2033.7287	 97.4877
2034.1946	 97.4589
2034.6605	 97.4273
2035.1265	 97.3936
2035.5924	 97.3581
2036.0583	 97.3214
2036.5242	 97.2837
2036.9901	 97.2453
2037.4560	 97.2062
2037.9220	 97.1664
2038.3879	 97.1258
2038.8538	 97.0841
2039.3197	 97.0409
2039.7856	 96.9960
2040.2515	 96.9486
2040.7175	 96.8985
2041.1834	 96.8451
2041.6493	 96.7880
2042.1152	 96.7268
2042.5811	 96.6611
2043.0471	 96.5909
2043.5130	 96.5160
2043.9789	 96.4365
2044.4448	 96.3527
2044.9107	 96.2647
2045.3766	 96.1732
2045.8426	 96.0786
2046.3085	 95.9817
2046.7744	 95.8832
2047.2403	 95.7840
2047.7062	 95.6848
2048.1721	 95.5866
2048.6381	 95.4902
2049.1040	 95.3964
2049.5699	 95.3061
2050.0358	 95.2198
2050.5017	 95.1382
2050.9676	 95.0618
2051.4336	 94.9910
2051.8995	 94.9260
2052.3654	 94.8668
2052.8313	 94.8136
2053.2972	 94.7661
2053.7631	 94.7242
2054.2291	 94.6874
2054.6950	 94.6552
2055.1609	 94.6272
2055.6268	 94.6027
2056.0927	 94.5810
2056.5587	 94.5616
2057.0246	 94.5437
2057.4905	 94.5267
2057.9564	 94.5099
2058.4223	 94.4928
2058.8882	 94.4748
2059.3542	 94.4555
2059.8201	 94.4345
2060.2860	 94.4117
2060.7519	 94.3868
2061.2178	 94.3598
2061.6837	 94.3308
2062.1497	 94.2998
2062.6156	 94.2671
2063.0815	 94.2330
2063.5474	 94.1978
2064.0133	 94.1620
2064.4792	 94.1259
2064.9452	 94.0901
2065.4111	 94.0548
2065.8770	 94.0206
2066.3429	 93.9877
2066.8088	 93.9565
2067.2747	 93.9272
2067.7407	 93.8999
2068.2066	 93.8747
2068.6725	 93.8515
2069.1384	 93.8302
2069.6043	 93.8107
2070.0703	 93.7925
2070.5362	 93.7755
2071.0021	 93.7592
2071.4680	 93.7432
2071.9339	 93.7271
2072.3998	 93.7105
2072.8658	 93.6929
2073.3317	 93.6741
2073.7976	 93.6538
2074.2635	 93.6317
2074.7294	 93.6076
2075.1953	 93.5814
2075.6613	 93.5533
2076.1272	 93.5232
2076.5931	 93.4913
2077.0590	 93.4578
2077.5249	 93.4232
2077.9908	 93.3876
2078.4568	 93.3516
2078.9227	 93.3156
2079.3886	 93.2799
2079.8545	 93.2452
2080.3204	 93.2118
2080.7863	 93.1801
2081.2523	 93.1505
2081.7182	 93.1234
2082.1841	 93.0991
2082.6500	 93.0777
2083.1159	 93.0594
2083.5819	 93.0442
2084.0478	 93.0321
2084.5137	 93.0232
2084.9796	 93.0171
2085.4455	 93.0136
2085.9114	 93.0126
2086.3774	 93.0137
2086.8433	 93.0166
2087.3092	 93.0208
2087.7751	 93.0260
2088.2410	 93.0318
2088.7069	 93.0378
2089.1729	 93.0438
2089.6388	 93.0494
2090.1047	 93.0543
2090.5706	 93.0583
2091.0365	 93.0613
2091.5024	 93.0631
2091.9684	 93.0637
2092.4343	 93.0631
2092.9002	 93.0613
2093.3661	 93.0585
2093.8320	 93.0546
2094.2979	 93.0501
2094.7639	 93.0449
2095.2298	 93.0392
2095.6957	 93.0334
2096.1616	 93.0275
2096.6275	 93.0217
2097.0935	 93.0161
2097.5594	 93.0108
2098.0253	 93.0059
2098.4912	 93.0014
2098.9571	 92.9972
2099.4230	 92.9933
2099.8890	 92.9895
2100.3549	 92.9857
2100.8208	 92.9817
2101.2867	 92.9773
2101.7526	 92.9723
2102.2185	 92.9666
2102.6845	 92.9599
2103.1504	 92.9521
2103.6163	 92.9430
2104.0822	 92.9326
2104.5481	 92.9209
2105.0140	 92.9079
2105.4800	 92.8935
2105.9459	 92.8781
2106.4118	 92.8616
2106.8777	 92.8444
2107.3436	 92.8266
2107.8095	 92.8086
2108.2755	 92.7907
2108.7414	 92.7732
2109.2073	 92.7564
2109.6732	 92.7406
2110.1391	 92.7262
2110.6051	 92.7135
2111.0710	 92.7026
2111.5369	 92.6937
2112.0028	 92.6871
2112.4687	 92.6828
2112.9346	 92.6808
2113.4006	 92.6812
2113.8665	 92.6838
2114.3324	 92.6885
2114.7983	 92.6952
2115.2642	 92.7036
2115.7301	 92.7134
2116.1961	 92.7245
2116.6620	 92.7366
2117.1279	 92.7493
2117.5938	 92.7624
2118.0597	 92.7757
2118.5256	 92.7889
2118.9916	 92.8019
2119.4575	 92.8147
2119.9234	 92.8270
2120.3893	 92.8389
2120.8552	 92.8504
2121.3211	 92.8616
2121.7871	 92.8728
2122.2530	 92.8840
2122.7189	 92.8955
2123.1848	 92.9077
2123.6507	 92.9207
2124.1166	 92.9350
2124.5826	 92.9509
2125.0485	 92.9688
2125.5144	 92.9888
2125.9803	 93.0114
2126.4462	 93.0368
2126.9122	 93.0652
2127.3781	 93.0966
2127.8440	 93.1313
2128.3099	 93.1692
2128.7758	 93.2102
2129.2417	 93.2542
2129.7077	 93.3009
2130.1736	 93.3500
2130.6395	 93.4012
2131.1054	 93.4540
2131.5713	 93.5079
2132.0372	 93.5623
2132.5032	 93.6169
2132.9691	 93.6711
2133.4350	 93.7243
2133.9009	 93.7761
2134.3668	 93.8261
2134.8327	 93.8740
2135.2987	 93.9196
2135.7646	 93.9627
2136.2305	 94.0033
2136.6964	 94.0415
2137.1623	 94.0775
2137.6282	 94.1116
2138.0942	 94.1443
2138.5601	 94.1760
2139.0260	 94.2072
2139.4919	 94.2386
2139.9578	 94.2709
2140.4238	 94.3046
2140.8897	 94.3404
2141.3556	 94.3788
2141.8215	 94.4205
2142.2874	 94.4658
2142.7533	 94.5151
2143.2193	 94.5687
2143.6852	 94.6269
2144.1511	 94.6896
2144.6170	 94.7569
2145.0829	 94.8287
2145.5488	 94.9048
2146.0148	 94.9849
2146.4807	 95.0689
2146.9466	 95.1563
2147.4125	 95.2469
2147.8784	 95.3403
2148.3443	 95.4361
2148.8103	 95.5341
2149.2762	 95.6340
2149.7421	 95.7356
2150.2080	 95.8387
2150.6739	 95.9430
2151.1398	 96.0485
2151.6058	 96.1550
2152.0717	 96.2626
2152.5376	 96.3709
2153.0035	 96.4799
2153.4694	 96.5895
2153.9354	 96.6992
2154.4013	 96.8087
2154.8672	 96.9175
2155.3331	 97.0249
2155.7990	 97.1301
2156.2649	 97.2321
2156.7309	 97.3299
2157.1968	 97.4222
2157.6627	 97.5076
2158.1286	 97.5850
2158.5945	 97.6530
2159.0604	 97.7104
2159.5264	 97.7561
2159.9923	 97.7894
2160.4582	 97.8096
2160.9241	 97.8163
2161.3900	 97.8095
2161.8559	 97.7895
2162.3219	 97.7566
2162.7878	 97.7115
2163.2537	 97.6553
2163.7196	 97.5890
2164.1855	 97.5137
2164.6514	 97.4308
2165.1174	 97.3415
2165.5833	 97.2474
2166.0492	 97.1496
2166.5151	 97.0496
2166.9810	 96.9487
2167.4470	 96.8480
2167.9129	 96.7487
2168.3788	 96.6519
2168.8447	 96.5585
2169.3106	 96.4694
2169.7765	 96.3854
2170.2425	 96.3071
2170.7084	 96.2349
2171.1743	 96.1693
2171.6402	 96.1104
2172.1061	 96.0584
2172.5720	 96.0132
2173.0380	 95.9747
2173.5039	 95.9424
2173.9698	 95.9160
2174.4357	 95.8949
2174.9016	 95.8785
2175.3675	 95.8660
2175.8335	 95.8566
2176.2994	 95.8497
2176.7653	 95.8443
2177.2312	 95.8396
2177.6971	 95.8350
2178.1630	 95.8297
2178.6290	 95.8232
2179.0949	 95.8149
2179.5608	 95.8045
2180.0267	 95.7918
2180.4926	 95.7766
2180.9586	 95.7588
2181.4245	 95.7386
2181.8904	 95.7163
2182.3563	 95.6920
2182.8222	 95.6661
2183.2881	 95.6391
2183.7541	 95.6113
2184.2200	 95.5832
2184.6859	 95.5551
2185.1518	 95.5275
2185.6177	 95.5006
2186.0836	 95.4747
2186.5496	 95.4499
2187.0155	 95.4262
2187.4814	 95.4036
2187.9473	 95.3820
2188.4132	 95.3612
2188.8791	 95.3409
2189.3451	 95.3207
2189.8110	 95.3002
2190.2769	 95.2791
2190.7428	 95.2568
2191.2087	 95.2330
2191.6746	 95.2072
2192.1406	 95.1792
2192.6065	 95.1486
2193.0724	 95.1152
2193.5383	 95.0789
2194.0042	 95.0396
2194.4702	 94.9975
2194.9361	 94.9525
2195.4020	 94.9050
2195.8679	 94.8553
2196.3338	 94.8038
2196.7997	 94.7510
2197.2657	 94.6973
2197.7316	 94.6434
2198.1975	 94.5899
2198.6634	 94.5374
2199.1293	 94.4864
2199.5952	 94.4376
2200.0612	 94.3914
2200.5271	 94.3484
2200.9930	 94.3089
2201.4589	 94.2732
2201.9248	 94.2415
2202.3907	 94.2139
2202.8567	 94.1904
2203.3226	 94.1709
2203.7885	 94.1552
2204.2544	 94.1428
2204.7203	 94.1335
2205.1862	 94.1268
2205.6522	 94.1222
2206.1181	 94.1191
2206.5840	 94.1171
2207.0499	 94.1154
2207.5158	 94.1137
2207.9818	 94.1115
2208.4477	 94.1083
2208.9136	 94.1038
2209.3795	 94.0976
2209.8454	 94.0897
2210.3113	 94.0798
2210.7773	 94.0679
2211.2432	 94.0541
2211.7091	 94.0384
2212.1750	 94.0210
2212.6409	 94.0020
2213.1068	 93.9819
2213.5728	 93.9607
2214.0387	 93.9388
2214.5046	 93.9166
2214.9705	 93.8942
2215.4364	 93.8719
2215.9023	 93.8500
2216.3683	 93.8286
2216.8342	 93.8078
2217.3001	 93.7878
2217.7660	 93.7685
2218.2319	 93.7498
2218.6978	 93.7317
2219.1638	 93.7141
2219.6297	 93.6968
2220.0956	 93.6795
2220.5615	 93.6621
2221.0274	 93.6444
2221.4934	 93.6261
2221.9593	 93.6070
2222.4252	 93.5870
2222.8911	 93.5660
2223.3570	 93.5439
2223.8229	 93.5205
2224.2889	 93.4961
2224.7548	 93.4706
2225.2207	 93.4442
2225.6866	 93.4171
2226.1525	 93.3894
2226.6184	 93.3614
2227.0844	 93.3335
2227.5503	 93.3058
2228.0162	 93.2787
2228.4821	 93.2525
2228.9480	 93.2273
2229.4139	 93.2036
2229.8799	 93.1814
2230.3458	 93.1608
2230.8117	 93.1420
2231.2776	 93.1250
2231.7435	 93.1096
2232.2094	 93.0957
2232.6754	 93.0832
2233.1413	 93.0718
2233.6072	 93.0611
2234.0731	 93.0509
2234.5390	 93.0408
2235.0050	 93.0302
2235.4709	 93.0189
2235.9368	 93.0065
2236.4027	 92.9925
2236.8686	 92.9767
2237.3345	 92.9588
2237.8005	 92.9386
2238.2664	 92.9159
2238.7323	 92.8906
2239.1982	 92.8628
2239.6641	 92.8325
2240.1300	 92.7999
2240.5960	 92.7653
2241.0619	 92.7288
2241.5278	 92.6909
2241.9937	 92.6520
2242.4596	 92.6124
2242.9255	 92.5727
2243.3915	 92.5333
2243.8574	 92.4947
2244.3233	 92.4574
2244.7892	 92.4216
2245.2551	 92.3879
2245.7210	 92.3565
2246.1870	 92.3277
2246.6529	 92.3016
2247.1188	 92.2784
2247.5847	 92.2580
2248.0506	 92.2405
2248.5166	 92.2257
2248.9825	 92.2133
2249.4484	 92.2032
2249.9143	 92.1950
2250.3802	 92.1883
2250.8461	 92.1828
2251.3121	 92.1780
2251.7780	 92.1735
2252.2439	 92.1690
2252.7098	 92.1641
2253.1757	 92.1584
2253.6416	 92.1516
2254.1076	 92.1436
2254.5735	 92.1340
2255.0394	 92.1229
2255.5053	 92.1100
2255.9712	 92.0955
2256.4371	 92.0793
2256.9031	 92.0615
2257.3690	 92.0424
2257.8349	 92.0220
2258.3008	 92.0005
2258.7667	 91.9783
2259.2326	 91.9556
2259.6986	 91.9325
2260.1645	 91.9093
2260.6304	 91.8863
2261.0963	 91.8636
2261.5622	 91.8413
2262.0281	 91.8196
2262.4941	 91.7986
2262.9600	 91.7784
2263.4259	 91.7588
2263.8918	 91.7399
2264.3577	 91.7217
2264.8237	 91.7039
2265.2896	 91.6866
2265.7555	 91.6695
2266.2214	 91.6526
2266.6873	 91.6356
2267.1532	 91.6185
2267.6192	 91.6011
2268.0851	 91.5834
2268.5510	 91.5651
2269.0169	 91.5462
2269.4828	 91.5268
2269.9487	 91.5067
2270.4147	 91.4861
2270.8806	 91.4649
2271.3465	 91.4432
2271.8124	 91.4211
2272.2783	 91.3986
2272.7442	 91.3760
2273.2102	 91.3531
2273.6761	 91.3303
2274.1420	 91.3075
2274.6079	 91.2848
2275.0738	 91.2623
2275.5397	 91.2400
2276.0057	 91.2180
2276.4716	 91.1961
2276.9375	 91.1744
2277.4034	 91.1528
2277.8693	 91.1312
2278.3353	 91.1095
2278.8012	 91.0875
2279.2671	 91.0653
2279.7330	 91.0426
2280.1989	 91.0193
2280.6648	 90.9953
2281.1308	 90.9706
2281.5967	 90.9450
2282.0626	 90.9186
2282.5285	 90.8914
2282.9944	 90.8633
2283.4603	 90.8345
2283.9263	 90.8051
2284.3922	 90.7751
2284.8581	 90.7448
2285.3240	 90.7143
2285.7899	 90.6838
2286.2558	 90.6536
2286.7218	 90.6239
2287.1877	 90.5950
2287.6536	 90.5670
2288.1195	 90.5402
2288.5854	 90.5148
2289.0513	 90.4909
2289.5173	 90.4688
2289.9832	 90.4485
2290.4491	 90.4302
2290.9150	 90.4137
2291.3809	 90.3993
2291.8469	 90.3867
2292.3128	 90.3760
2292.7787	 90.3670
2293.2446	 90.3596
2293.7105	 90.3535
2294.1764	 90.3486
2294.6424	 90.3446
2295.1083	 90.3414
2295.5742	 90.3385
2296.0401	 90.3359
2296.5060	 90.3333
2296.9719	 90.3304
2297.4379	 90.3271
2297.9038	 90.3232
2298.3697	 90.3186
2298.8356	 90.3131
2299.3015	 90.3068
2299.7674	 90.2995
2300.2334	 90.2912
2300.6993	 90.2821
2301.1652	 90.2721
2301.6311	 90.2614
2302.0970	 90.2500
2302.5629	 90.2381
2303.0289	 90.2258
2303.4948	 90.2133
2303.9607	 90.2007
2304.4266	 90.1882
2304.8925	 90.1759
2305.3585	 90.1638
2305.8244	 90.1521
2306.2903	 90.1408
2306.7562	 90.1300
2307.2221	 90.1197
2307.6880	 90.1098
2308.1540	 90.1004
2308.6199	 90.0913
2309.0858	 90.0824
2309.5517	 90.0737
2310.0176	 90.0650
2310.4835	 90.0562
2310.9495	 90.0472
2311.4154	 90.0378
2311.8813	 90.0279
2312.3472	 90.0175
2312.8131	 90.0065
2313.2790	 89.9948
2313.7450	 89.9824
2314.2109	 89.9694
2314.6768	 89.9557
2315.1427	 89.9416
2315.6086	 89.9271
2316.0745	 89.9124
2316.5405	 89.8976
2317.0064	 89.8830
2317.4723	 89.8687
2317.9382	 89.8549
2318.4041	 89.8419
2318.8701	 89.8298
2319.3360	 89.8188
2319.8019	 89.8091
2320.2678	 89.8007
2320.7337	 89.7938
2321.1996	 89.7884
2321.6656	 89.7845
2322.1315	 89.7821
2322.5974	 89.7811
2323.0633	 89.7813
2323.5292	 89.7827
2323.9951	 89.7851
2324.4611	 89.7883
2324.9270	 89.7920
2325.3929	 89.7960
2325.8588	 89.8001
2326.3247	 89.8040
2326.7906	 89.8074
2327.2566	 89.8102
2327.7225	 89.8120
2328.1884	 89.8128
2328.6543	 89.8122
2329.1202	 89.8102
2329.5861	 89.8065
2330.0521	 89.8012
2330.5180	 89.7941
2330.9839	 89.7853
2331.4498	 89.7748
2331.9157	 89.7625
2332.3817	 89.7488
2332.8476	 89.7336
2333.3135	 89.7172
2333.7794	 89.6999
2334.2453	 89.6818
2334.7112	 89.6632
2335.1772	 89.6445
2335.6431	 89.6259
2336.1090	 89.6077
2336.5749	 89.5902
2337.0408	 89.5736
2337.5067	 89.5582
2337.9727	 89.5441
2338.4386	 89.5315
2338.9045	 89.5205
2339.3704	 89.5112
2339.8363	 89.5036
2340.3022	 89.4976
2340.7682	 89.4933
2341.2341	 89.4904
2341.7000	 89.4891
2342.1659	 89.4890
2342.6318	 89.4901
2343.0977	 89.4924
2343.5637	 89.4956
2344.0296	 89.4996
2344.4955	 89.5044
2344.9614	 89.5099
2345.4273	 89.5160
2345.8933	 89.5227
2346.3592	 89.5298
2346.8251	 89.5374
2347.2910	 89.5455
2347.7569	 89.5540
2348.2228	 89.5630
2348.6888	 89.5724
2349.1547	 89.5822
2349.6206	 89.5925
2350.0865	 89.6032
2350.5524	 89.6143
2351.0183	 89.6257
2351.4843	 89.6375
2351.9502	 89.6496
2352.4161	 89.6618
2352.8820	 89.6740
2353.3479	 89.6862
2353.8138	 89.6982
2354.2798	 89.7097
2354.7457	 89.7206
2355.2116	 89.7307
2355.6775	 89.7397
2356.1434	 89.7474
2356.6093	 89.7535
2357.0753	 89.7579
2357.5412	 89.7602
2358.0071	 89.7603
2358.4730	 89.7581
2358.9389	 89.7535
2359.4049	 89.7463
2359.8708	 89.7368
2360.3367	 89.7248
2360.8026	 89.7107
2361.2685	 89.6946
2361.7344	 89.6768
2362.2004	 89.6576
2362.6663	 89.6374
2363.1322	 89.6166
2363.5981	 89.5955
2364.0640	 89.5744
2364.5299	 89.5538
2364.9959	 89.5338
2365.4618	 89.5148
2365.9277	 89.4969
2366.3936	 89.4802
2366.8595	 89.4649
2367.3254	 89.4508
2367.7914	 89.4379
2368.2573	 89.4263
2368.7232	 89.4157
2369.1891	 89.4059
2369.6550	 89.3969
2370.1209	 89.3885
2370.5869	 89.3804
2371.0528	 89.3725
2371.5187	 89.3646
2371.9846	 89.3567
2372.4505	 89.3485
2372.9165	 89.3400
2373.3824	 89.3312
2373.8483	 89.3219
2374.3142	 89.3123
2374.7801	 89.3022
2375.2460	 89.2918
2375.7120	 89.2812
2376.1779	 89.2704
2376.6438	 89.2595
2377.1097	 89.2486
2377.5756	 89.2379
2378.0415	 89.2275
2378.5075	 89.2174
2378.9734	 89.2079
2379.4393	 89.1990
2379.9052	 89.1908
2380.3711	 89.1833
2380.8370	 89.1767
2381.3030	 89.1709
2381.7689	 89.1659
2382.2348	 89.1618
2382.7007	 89.1585
2383.1666	 89.1560
2383.6325	 89.1542
2384.0985	 89.1529
2384.5644	 89.1522
2385.0303	 89.1520
2385.4962	 89.1520
2385.9621	 89.1522
2386.4281	 89.1525
2386.8940	 89.1527
2387.3599	 89.1529
2387.8258	 89.1528
2388.2917	 89.1525
2388.7576	 89.1518
2389.2236	 89.1508
2389.6895	 89.1494
2390.1554	 89.1477
2390.6213	 89.1456
2391.0872	 89.1432
2391.5531	 89.1405
2392.0191	 89.1377
2392.4850	 89.1348
2392.9509	 89.1318
2393.4168	 89.1290
2393.8827	 89.1263
2394.3486	 89.1238
2394.8146	 89.1217
2395.2805	 89.1199
2395.7464	 89.1185
2396.2123	 89.1175
2396.6782	 89.1170
2397.1441	 89.1169
2397.6101	 89.1171
2398.0760	 89.1175
2398.5419	 89.1182
2399.0078	 89.1190
2399.4737	 89.1198
2399.9396	 89.1205
2400.4056	 89.1209
2400.8715	 89.1210
2401.3374	 89.1207
2401.8033	 89.1198
2402.2692	 89.1183
2402.7352	 89.1160
2403.2011	 89.1131
2403.6670	 89.1094
2404.1329	 89.1050
2404.5988	 89.0999
2405.0647	 89.0942
2405.5307	 89.0879
2405.9966	 89.0813
2406.4625	 89.0743
2406.9284	 89.0671
2407.3943	 89.0600
2407.8602	 89.0529
2408.3262	 89.0462
2408.7921	 89.0398
2409.2580	 89.0340
2409.7239	 89.0288
2410.1898	 89.0244
2410.6557	 89.0207
2411.1217	 89.0179
2411.5876	 89.0158
2412.0535	 89.0146
2412.5194	 89.0140
2412.9853	 89.0140
2413.4512	 89.0146
2413.9172	 89.0155
2414.3831	 89.0165
2414.8490	 89.0176
2415.3149	 89.0185
2415.7808	 89.0191
2416.2468	 89.0192
2416.7127	 89.0186
2417.1786	 89.0171
2417.6445	 89.0148
2418.1104	 89.0114
2418.5763	 89.0069
2419.0423	 89.0013
2419.5082	 88.9946
2419.9741	 88.9868
2420.4400	 88.9780
2420.9059	 88.9684
2421.3718	 88.9579
2421.8378	 88.9469
2422.3037	 88.9354
2422.7696	 88.9236
2423.2355	 88.9119
2423.7014	 88.9002
2424.1673	 88.8890
2424.6333	 88.8782
2425.0992	 88.8681
2425.5651	 88.8588
2426.0310	 88.8505
2426.4969	 88.8432
2426.9628	 88.8370
2427.4288	 88.8319
2427.8947	 88.8279
2428.3606	 88.8250
2428.8265	 88.8230
2429.2924	 88.8219
2429.7584	 88.8216
2430.2243	 88.8219
2430.6902	 88.8227
2431.1561	 88.8238
2431.6220	 88.8251
2432.0879	 88.8265
2432.5539	 88.8277
2433.0198	 88.8287
2433.4857	 88.8294
2433.9516	 88.8296
2434.4175	 88.8293
2434.8834	 88.8284
2435.3494	 88.8270
2435.8153	 88.8250
2436.2812	 88.8225
2436.7471	 88.8194
2437.2130	 88.8159
2437.6789	 88.8119
2438.1449	 88.8076
2438.6108	 88.8030
2439.0767	 88.7982
2439.5426	 88.7932
2440.0085	 88.7881
2440.4744	 88.7828
2440.9404	 88.7775
2441.4063	 88.7722
2441.8722	 88.7667
2442.3381	 88.7612
2442.8040	 88.7554
2443.2700	 88.7495
2443.7359	 88.7432
2444.2018	 88.7366
2444.6677	 88.7296
2445.1336	 88.7221
2445.5995	 88.7139
2446.0655	 88.7052
2446.5314	 88.6958
2446.9973	 88.6856
2447.4632	 88.6748
2447.9291	 88.6633
2448.3950	 88.6512
2448.8610	 88.6385
2449.3269	 88.6253
2449.7928	 88.6118
2450.2587	 88.5980
2450.7246	 88.5842
2451.1905	 88.5705
2451.6565	 88.5570
2452.1224	 88.5439
2452.5883	 88.5314
2453.0542	 88.5196
2453.5201	 88.5087
2453.9860	 88.4988
2454.4520	 88.4899
2454.9179	 88.4822
2455.3838	 88.4755
2455.8497	 88.4701
2456.3156	 88.4657
2456.7816	 88.4624
2457.2475	 88.4600
2457.7134	 88.4584
2458.1793	 88.4574
2458.6452	 88.4569
2459.1111	 88.4567
2459.5771	 88.4566
2460.0430	 88.4563
2460.5089	 88.4558
2460.9748	 88.4548
2461.4407	 88.4531
2461.9066	 88.4507
2462.3726	 88.4474
2462.8385	 88.4431
2463.3044	 88.4379
2463.7703	 88.4316
2464.2362	 88.4243
2464.7021	 88.4162
2465.1681	 88.4072
2465.6340	 88.3975
2466.0999	 88.3873
2466.5658	 88.3766
2467.0317	 88.3658
2467.4976	 88.3550
2467.9636	 88.3444
2468.4295	 88.3342
2468.8954	 88.3244
2469.3613	 88.3154
2469.8272	 88.3072
2470.2932	 88.2999
2470.7591	 88.2936
2471.2250	 88.2883
2471.6909	 88.2839
2472.1568	 88.2806
2472.6227	 88.2781
2473.0887	 88.2763
2473.5546	 88.2752
2474.0205	 88.2745
2474.4864	 88.2741
2474.9523	 88.2737
2475.4182	 88.2733
2475.8842	 88.2726
2476.3501	 88.2714
2476.8160	 88.2695
2477.2819	 88.2669
2477.7478	 88.2634
2478.2137	 88.2589
2478.6797	 88.2535
2479.1456	 88.2469
2479.6115	 88.2394
2480.0774	 88.2309
2480.5433	 88.2216
2481.0092	 88.2114
2481.4752	 88.2007
2481.9411	 88.1895
2482.4070	 88.1780
2482.8729	 88.1664
2483.3388	 88.1549
2483.8048	 88.1435
2484.2707	 88.1325
2484.7366	 88.1220
2485.2025	 88.1121
2485.6684	 88.1028
2486.1343	 88.0943
2486.6003	 88.0865
2487.0662	 88.0794
2487.5321	 88.0729
2487.9980	 88.0670
2488.4639	 88.0616
2488.9298	 88.0565
2489.3958	 88.0516
2489.8617	 88.0467
2490.3276	 88.0418
2490.7935	 88.0365
2491.2594	 88.0309
2491.7253	 88.0247
2492.1913	 88.0180
2492.6572	 88.0105
2493.1231	 88.0023
2493.5890	 87.9933
2494.0549	 87.9837
2494.5208	 87.9733
2494.9868	 87.9625
2495.4527	 87.9512
2495.9186	 87.9396
2496.3845	 87.9279
2496.8504	 87.9163
2497.3164	 87.9050
2497.7823	 87.8942
2498.2482	 87.8841
2498.7141	 87.8749
2499.1800	 87.8668
2499.6459	 87.8599
2500.1119	 87.8543
2500.5778	 87.8502
2501.0437	 87.8476
2501.5096	 87.8465
2501.9755	 87.8469
2502.4414	 87.8487
2502.9074	 87.8518
2503.3733	 87.8561
2503.8392	 87.8614
2504.3051	 87.8676
2504.7710	 87.8743
2505.2369	 87.8815
2505.7029	 87.8888
2506.1688	 87.8961
2506.6347	 87.9031
2507.1006	 87.9096
2507.5665	 87.9155
2508.0324	 87.9207
2508.4984	 87.9249
2508.9643	 87.9282
2509.4302	 87.9304
2509.8961	 87.9315
2510.3620	 87.9316
2510.8280	 87.9307
2511.2939	 87.9288
2511.7598	 87.9262
2512.2257	 87.9228
2512.6916	 87.9188
2513.1575	 87.9143
2513.6235	 87.9096
2514.0894	 87.9046
2514.5553	 87.8996
2515.0212	 87.8947
2515.4871	 87.8899
2515.9530	 87.8854
2516.4190	 87.8811
2516.8849	 87.8772
2517.3508	 87.8736
2517.8167	 87.8703
2518.2826	 87.8672
2518.7485	 87.8644
2519.2145	 87.8618
2519.6804	 87.8592
2520.1463	 87.8566
2520.6122	 87.8539
2521.0781	 87.8511
2521.5440	 87.8481
2522.0100	 87.8447
2522.4759	 87.8411
2522.9418	 87.8371
2523.4077	 87.8327
2523.8736	 87.8281
2524.3396	 87.8232
2524.8055	 87.8181
2525.2714	 87.8129
2525.7373	 87.8077
2526.2032	 87.8025
2526.6691	 87.7976
2527.1351	 87.7930
2527.6010	 87.7889
2528.0669	 87.7852
2528.5328	 87.7822
2528.9987	 87.7799
2529.4646	 87.7783
2529.9306	 87.7774
2530.3965	 87.7773
2530.8624	 87.7780
2531.3283	 87.7792
2531.7942	 87.7810
2532.2601	 87.7832
2532.7261	 87.7858
2533.1920	 87.7884
2533.6579	 87.7910
2534.1238	 87.7934
2534.5897	 87.7955
2535.0556	 87.7970
2535.5216	 87.7978
2535.9875	 87.7978
2536.4534	 87.7969
2536.9193	 87.7949
2537.3852	 87.7920
2537.8511	 87.7879
2538.3171	 87.7829
2538.7830	 87.7769
2539.2489	 87.7701
2539.7148	 87.7625
2540.1807	 87.7544
2540.6467	 87.7459
2541.1126	 87.7373
2541.5785	 87.7287
2542.0444	 87.7204
2542.5103	 87.7125
2542.9762	 87.7053
2543.4422	 87.6989
2543.9081	 87.6935
2544.3740	 87.6893
2544.8399	 87.6863
2545.3058	 87.6845
2545.7717	 87.6840
2546.2377	 87.6847
2546.7036	 87.6866
2547.1695	 87.6895
2547.6354	 87.6933
2548.1013	 87.6977
2548.5672	 87.7026
2549.0332	 87.7078
2549.4991	 87.7130
2549.9650	 87.7179
2550.4309	 87.7224
2550.8968	 87.7261
2551.3627	 87.7290
2551.8287	 87.7307
2552.2946	 87.7313
2552.7605	 87.7305
2553.2264	 87.7284
2553.6923	 87.7249
2554.1583	 87.7200
2554.6242	 87.7138
2555.0901	 87.7065
2555.5560	 87.6981
2556.0219	 87.6888
2556.4878	 87.6789
2556.9538	 87.6685
2557.4197	 87.6579
2557.8856	 87.6473
2558.3515	 87.6370
2558.8174	 87.6272
2559.2833	 87.6180
2559.7493	 87.6096
2560.2152	 87.6022
2560.6811	 87.5958
2561.1470	 87.5906
2561.6129	 87.5865
2562.0788	 87.5836
2562.5448	 87.5817
2563.0107	 87.5808
2563.4766	 87.5808
2563.9425	 87.5815
2564.4084	 87.5827
2564.8743	 87.5843
2565.3403	 87.5860
2565.8062	 87.5877
2566.2721	 87.5891
2566.7380	 87.5902
2567.2039	 87.5907
2567.6699	 87.5905
2568.1358	 87.5895
2568.6017	 87.5876
2569.0676	 87.5849
2569.5335	 87.5812
2569.9994	 87.5767
2570.4654	 87.5713
2570.9313	 87.5651
2571.3972	 87.5583
2571.8631	 87.5510
2572.3290	 87.5433
2572.7949	 87.5352
2573.2609	 87.5271
2573.7268	 87.5190
2574.1927	 87.5110
2574.6586	 87.5033
2575.1245	 87.4958
2575.5904	 87.4888
2576.0564	 87.4822
2576.5223	 87.4761
2576.9882	 87.4704
2577.4541	 87.4651
2577.9200	 87.4601
2578.3859	 87.4554
2578.8519	 87.4508
2579.3178	 87.4463
2579.7837	 87.4417
2580.2496	 87.4369
2580.7155	 87.4317
2581.1815	 87.4261
2581.6474	 87.4200
2582.1133	 87.4133
2582.5792	 87.4059
2583.0451	 87.3978
2583.5110	 87.3889
2583.9770	 87.3794
2584.4429	 87.3692
2584.9088	 87.3584
2585.3747	 87.3470
2585.8406	 87.3352
2586.3065	 87.3231
2586.7725	 87.3108
2587.2384	 87.2984
2587.7043	 87.2860
2588.1702	 87.2739
2588.6361	 87.2620
2589.1020	 87.2504
2589.5680	 87.2393
2590.0339	 87.2287
2590.4998	 87.2186
2590.9657	 87.2090
2591.4316	 87.1999
2591.8975	 87.1912
2592.3635	 87.1829
2592.8294	 87.1748
2593.2953	 87.1669
2593.7612	 87.1590
2594.2271	 87.1510
2594.6931	 87.1428
2595.1590	 87.1342
2595.6249	 87.1252
2596.0908	 87.1155
2596.5567	 87.1052
2597.0226	 87.0942
2597.4886	 87.0824
2597.9545	 87.0698
2598.4204	 87.0565
2598.8863	 87.0425
2599.3522	 87.0279
2599.8181	 87.0129
2600.2841	 86.9974
2600.7500	 86.9817
2601.2159	 86.9660
2601.6818	 86.9504
2602.1477	 86.9352
2602.6136	 86.9204
2603.0796	 86.9062
2603.5455	 86.8929
2604.0114	 86.8805
2604.4773	 86.8692
2604.9432	 86.8590
2605.4091	 86.8500
2605.8751	 86.8422
2606.3410	 86.8357
2606.8069	 86.8303
2607.2728	 86.8260
2607.7387	 86.8226
2608.2047	 86.8201
2608.6706	 86.8184
2609.1365	 86.8171
2609.6024	 86.8162
2610.0683	 86.8154
2610.5342	 86.8147
2611.0002	 86.8137
2611.4661	 86.8123
2611.9320	 86.8104
2612.3979	 86.8079
2612.8638	 86.8045
2613.3297	 86.8003
2613.7957	 86.7952
2614.2616	 86.7891
2614.7275	 86.7821
2615.1934	 86.7742
2615.6593	 86.7654
2616.1252	 86.7557
2616.5912	 86.7454
2617.0571	 86.7344
2617.5230	 86.7229
2617.9889	 86.7110
2618.4548	 86.6989
2618.9207	 86.6865
2619.3867	 86.6742
2619.8526	 86.6618
2620.3185	 86.6496
2620.7844	 86.6376
2621.2503	 86.6258
2621.7163	 86.6143
2622.1822	 86.6031
2622.6481	 86.5922
2623.1140	 86.5816
2623.5799	 86.5712
2624.0458	 86.5611
2624.5118	 86.5511
2624.9777	 86.5413
2625.4436	 86.5315
2625.9095	 86.5217
2626.3754	 86.5119
2626.8413	 86.5021
2627.3073	 86.4922
2627.7732	 86.4822
2628.2391	 86.4721
2628.7050	 86.4618
2629.1709	 86.4516
2629.6368	 86.4412
2630.1028	 86.4309
2630.5687	 86.4207
2631.0346	 86.4105
2631.5005	 86.4005
2631.9664	 86.3908
2632.4323	 86.3813
2632.8983	 86.3721
2633.3642	 86.3633
2633.8301	 86.3549
2634.2960	 86.3469
2634.7619	 86.3393
2635.2279	 86.3322
2635.6938	 86.3254
2636.1597	 86.3189
2636.6256	 86.3127
2637.0915	 86.3067
2637.5574	 86.3009
2638.0234	 86.2952
2638.4893	 86.2894
2638.9552	 86.2836
2639.4211	 86.2775
2639.8870	 86.2712
2640.3529	 86.2647
2640.8189	 86.2577
2641.2848	 86.2504
2641.7507	 86.2427
2642.2166	 86.2345
2642.6825	 86.2260
2643.1484	 86.2171
2643.6144	 86.2080
2644.0803	 86.1986
2644.5462	 86.1890
2645.0121	 86.1795
2645.4780	 86.1699
2645.9439	 86.1606
2646.4099	 86.1515
2646.8758	 86.1428
2647.3417	 86.1345
2647.8076	 86.1268
2648.2735	 86.1197
2648.7395	 86.1133
2649.2054	 86.1076
2649.6713	 86.1025
2650.1372	 86.0982
2650.6031	 86.0946
2651.0690	 86.0916
2651.5350	 86.0891
2652.0009	 86.0871
2652.4668	 86.0854
2652.9327	 86.0840
2653.3986	 86.0827
2653.8645	 86.0813
2654.3305	 86.0799
2654.7964	 86.0781
2655.2623	 86.0760
2655.7282	 86.0734
2656.1941	 86.0703
2656.6600	 86.0666
2657.1260	 86.0621
2657.5919	 86.0570
2658.0578	 86.0512
2658.5237	 86.0448
2658.9896	 86.0377
2659.4555	 86.0301
2659.9215	 86.0220
2660.3874	 86.0136
2660.8533	 86.0049
2661.3192	 85.9961
2661.7851	 85.9873
2662.2511	 85.9786
2662.7170	 85.9701
2663.1829	 85.9621
2663.6488	 85.9544
2664.1147	 85.9474
2664.5806	 85.9409
2665.0466	 85.9352
2665.5125	 85.9301
2665.9784	 85.9257
2666.4443	 85.9220
2666.9102	 85.9189
2667.3761	 85.9163
2667.8421	 85.9143
2668.3080	 85.9125
2668.7739	 85.9110
2669.2398	 85.9096
2669.7057	 85.9082
2670.1716	 85.9066
2670.6376	 85.9047
2671.1035	 85.9023
2671.5694	 85.8994
2672.0353	 85.8957
2672.5012	 85.8914
2672.9671	 85.8862
2673.4331	 85.8801
2673.8990	 85.8731
2674.3649	 85.8653
2674.8308	 85.8565
2675.2967	 85.8470
2675.7626	 85.8367
2676.2286	 85.8257
2676.6945	 85.8142
2677.1604	 85.8022
2677.6263	 85.7899
2678.0922	 85.7774
2678.5582	 85.7648
2679.0241	 85.7522
2679.4900	 85.7397
2679.9559	 85.7274
2680.4218	 85.7154
2680.8877	 85.7038
2681.3537	 85.6926
2681.8196	 85.6818
2682.2855	 85.6715
2682.7514	 85.6616
2683.2173	 85.6521
2683.6832	 85.6430
2684.1492	 85.6341
2684.6151	 85.6256
2685.0810	 85.6172
2685.5469	 85.6089
2686.0128	 85.6007
2686.4787	 85.5924
2686.9447	 85.5841
2687.4106	 85.5756
2687.8765	 85.5669
2688.3424	 85.5581
2688.8083	 85.5490
2689.2742	 85.5397
2689.7402	 85.5302
2690.2061	 85.5205
2690.6720	 85.5107
2691.1379	 85.5008
2691.6038	 85.4909
2692.0698	 85.4810
2692.5357	 85.4712
2693.0016	 85.4616
2693.4675	 85.4522
2693.9334	 85.4430
2694.3993	 85.4342
2694.8653	 85.4257
2695.3312	 85.4176
2695.7971	 85.4099
2696.2630	 85.4026
2696.7289	 85.3955
2697.1948	 85.3888
2697.6608	 85.3823
2698.1267	 85.3761
2698.5926	 85.3699
2699.0585	 85.3638
2699.5244	 85.3577
2699.9903	 85.3515
2700.4563	 85.3451
2700.9222	 85.3385
2701.3881	 85.3316
2701.8540	 85.3243
2702.3199	 85.3167
2702.7858	 85.3088
2703.2518	 85.3004
2703.7177	 85.2918
2704.1836	 85.2828
2704.6495	 85.2737
2705.1154	 85.2643
2705.5814	 85.2549
2706.0473	 85.2456
2706.5132	 85.2364
2706.9791	 85.2274
2707.4450	 85.2188
2707.9109	 85.2107
2708.3769	 85.2031
2708.8428	 85.1962
2709.3087	 85.1901
2709.7746	 85.1847
2710.2405	 85.1802
2710.7064	 85.1766
2711.1724	 85.1738
2711.6383	 85.1718
2712.1042	 85.1707
2712.5701	 85.1703
2713.0360	 85.1706
2713.5019	 85.1714
2713.9679	 85.1727
2714.4338	 85.1744
2714.8997	 85.1764
2715.3656	 85.1785
2715.8315	 85.1805
2716.2974	 85.1825
2716.7634	 85.1843
2717.2293	 85.1859
2717.6952	 85.1870
2718.1611	 85.1878
2718.6270	 85.1881
2719.0930	 85.1880
2719.5589	 85.1873
2720.0248	 85.1862
2720.4907	 85.1847
2720.9566	 85.1828
2721.4225	 85.1806
2721.8885	 85.1780
2722.3544	 85.1753
2722.8203	 85.1725
2723.2862	 85.1695
2723.7521	 85.1666
2724.2180	 85.1638
2724.6840	 85.1610
2725.1499	 85.1584
2725.6158	 85.1560
2726.0817	 85.1538
2726.5476	 85.1519
2727.0135	 85.1500
2727.4795	 85.1484
2727.9454	 85.1469
2728.4113	 85.1455
2728.8772	 85.1442
2729.3431	 85.1428
2729.8090	 85.1414
2730.2750	 85.1399
2730.7409	 85.1382
2731.2068	 85.1363
2731.6727	 85.1342
2732.1386	 85.1319
2732.6046	 85.1294
2733.0705	 85.1266
2733.5364	 85.1235
2734.0023	 85.1204
2734.4682	 85.1170
2734.9341	 85.1137
2735.4001	 85.1103
2735.8660	 85.1070
2736.3319	 85.1039
2736.7978	 85.1011
2737.2637	 85.0986
2737.7296	 85.0965
2738.1956	 85.0948
2738.6615	 85.0937
2739.1274	 85.0932
2739.5933	 85.0933
2740.0592	 85.0939
2740.5251	 85.0952
2740.9911	 85.0970
2741.4570	 85.0993
2741.9229	 85.1020
2742.3888	 85.1051
2742.8547	 85.1085
2743.3206	 85.1121
2743.7866	 85.1156
2744.2525	 85.1192
2744.7184	 85.1225
2745.1843	 85.1256
2745.6502	 85.1283
2746.1162	 85.1306
2746.5821	 85.1323
2747.0480	 85.1335
2747.5139	 85.1341
2747.9798	 85.1341
2748.4457	 85.1336
2748.9117	 85.1325
2749.3776	 85.1309
2749.8435	 85.1289
2750.3094	 85.1267
2750.7753	 85.1243
2751.2412	 85.1218
2751.7072	 85.1193
2752.1731	 85.1171
2752.6390	 85.1151
2753.1049	 85.1137
2753.5708	 85.1127
2754.0367	 85.1124
2754.5027	 85.1128
2754.9686	 85.1140
2755.4345	 85.1160
2755.9004	 85.1188
2756.3663	 85.1223
2756.8322	 85.1267
2757.2982	 85.1316
2757.7641	 85.1372
2758.2300	 85.1432
2758.6959	 85.1495
2759.1618	 85.1561
2759.6278	 85.1627
2760.0937	 85.1692
2760.5596	 85.1754
2761.0255	 85.1812
2761.4914	 85.1865
2761.9573	 85.1911
2762.4233	 85.1949
2762.8892	 85.1979
2763.3551	 85.1998
2763.8210	 85.2008
2764.2869	 85.2007
2764.7528	 85.1995
2765.2188	 85.1974
2765.6847	 85.1942
2766.1506	 85.1900
2766.6165	 85.1850
2767.0824	 85.1791
2767.5483	 85.1726
2768.0143	 85.1654
2768.4802	 85.1576
2768.9461	 85.1495
2769.4120	 85.1409
2769.8779	 85.1322
2770.3438	 85.1232
2770.8098	 85.1141
2771.2757	 85.1049
2771.7416	 85.0958
2772.2075	 85.0866
2772.6734	 85.0774
2773.1394	 85.0682
2773.6053	 85.0590
2774.0712	 85.0499
2774.5371	 85.0406
2775.0030	 85.0314
2775.4689	 85.0220
2775.9349	 85.0125
2776.4008	 85.0029
2776.8667	 84.9931
2777.3326	 84.9832
2777.7985	 84.9731
2778.2644	 84.9628
2778.7304	 84.9525
2779.1963	 84.9420
2779.6622	 84.9315
2780.1281	 84.9210
2780.5940	 84.9106
2781.0599	 84.9003
2781.5259	 84.8901
2781.9918	 84.8802
2782.4577	 84.8705
2782.9236	 84.8613
2783.3895	 84.8524
2783.8554	 84.8439
2784.3214	 84.8359
2784.7873	 84.8283
2785.2532	 84.8211
2785.7191	 84.8144
2786.1850	 84.8080
2786.6510	 84.8019
2787.1169	 84.7961
2787.5828	 84.7904
2788.0487	 84.7847
2788.5146	 84.7790
2788.9805	 84.7732
2789.4465	 84.7672
2789.9124	 84.7608
2790.3783	 84.7539
2790.8442	 84.7466
2791.3101	 84.7387
2791.7760	 84.7301
2792.2420	 84.7209
2792.7079	 84.7110
2793.1738	 84.7005
2793.6397	 84.6893
2794.1056	 84.6774
2794.5715	 84.6650
2795.0375	 84.6522
2795.5034	 84.6389
2795.9693	 84.6253
2796.4352	 84.6115
2796.9011	 84.5976
2797.3670	 84.5837
2797.8330	 84.5699
2798.2989	 84.5563
2798.7648	 84.5429
2799.2307	 84.5299
2799.6966	 84.5172
2800.1626	 84.5049
2800.6285	 84.4930
2801.0944	 84.4815
2801.5603	 84.4703
2802.0262	 84.4595
2802.4921	 84.4489
2802.9581	 84.4386
2803.4240	 84.4283
2803.8899	 84.4180
2804.3558	 84.4077
2804.8217	 84.3972
2805.2876	 84.3865
2805.7536	 84.3754
2806.2195	 84.3639
2806.6854	 84.3520
2807.1513	 84.3396
2807.6172	 84.3267
2808.0831	 84.3134
2808.5491	 84.2995
2809.0150	 84.2853
2809.4809	 84.2706
2809.9468	 84.2557
2810.4127	 84.2406
2810.8786	 84.2253
2811.3446	 84.2101
2811.8105	 84.1949
2812.2764	 84.1800
2812.7423	 84.1653
2813.2082	 84.1510
2813.6741	 84.1371
2814.1401	 84.1237
2814.6060	 84.1109
2815.0719	 84.0986
2815.5378	 84.0868
2816.0037	 84.0755
2816.4697	 84.0646
2816.9356	 84.0541
2817.4015	 84.0438
2817.8674	 84.0336
2818.3333	 84.0234
2818.7992	 84.0130
2819.2652	 84.0024
2819.7311	 83.9913
2820.1970	 83.9795
2820.6629	 83.9671
2821.1288	 83.9538
2821.5947	 83.9395
2822.0607	 83.9242
2822.5266	 83.9078
2822.9925	 83.8901
2823.4584	 83.8713
2823.9243	 83.8513
2824.3902	 83.8302
2824.8562	 83.8080
2825.3221	 83.7847
2825.7880	 83.7606
2826.2539	 83.7356
2826.7198	 83.7099
2827.1857	 83.6837
2827.6517	 83.6571
2828.1176	 83.6302
2828.5835	 83.6032
2829.0494	 83.5761
2829.5153	 83.5492
2829.9813	 83.5224
2830.4472	 83.4959
2830.9131	 83.4697
2831.3790	 83.4439
2831.8449	 83.4184
2832.3108	 83.3934
2832.7768	 83.3688
2833.2427	 83.3445
2833.7086	 83.3206
2834.1745	 83.2969
2834.6404	 83.2735
2835.1063	 83.2504
2835.5723	 83.2273
2836.0382	 83.2044
2836.5041	 83.1816
2836.9700	 83.1588
2837.4359	 83.1362
2837.9018	 83.1136
2838.3678	 83.0912
2838.8337	 83.0690
2839.2996	 83.0471
2839.7655	 83.0256
2840.2314	 83.0046
2840.6973	 82.9842
2841.1633	 82.9646
2841.6292	 82.9458
2842.0951	 82.9281
2842.5610	 82.9115
2843.0269	 82.8962
2843.4929	 82.8824
2843.9588	 82.8701
2844.4247	 82.8593
2844.8906	 82.8503
2845.3565	 82.8429
2845.8224	 82.8373
2846.2884	 82.8334
2846.7543	 82.8312
2847.2202	 82.8305
2847.6861	 82.8314
2848.1520	 82.8337
2848.6179	 82.8373
2849.0839	 82.8419
2849.5498	 82.8476
2850.0157	 82.8541
2850.4816	 82.8612
2850.9475	 82.8688
2851.4134	 82.8767
2851.8794	 82.8847
2852.3453	 82.8928
2852.8112	 82.9009
2853.2771	 82.9087
2853.7430	 82.9162
2854.2089	 82.9234
2854.6749	 82.9302
2855.1408	 82.9366
2855.6067	 82.9425
2856.0726	 82.9479
2856.5385	 82.9529
2857.0045	 82.9574
2857.4704	 82.9615
2857.9363	 82.9651
2858.4022	 82.9682
2858.8681	 82.9709
2859.3340	 82.9732
2859.8000	 82.9750
2860.2659	 82.9763
2860.7318	 82.9770
2861.1977	 82.9772
2861.6636	 82.9767
2862.1295	 82.9755
2862.5955	 82.9735
2863.0614	 82.9706
2863.5273	 82.9668
2863.9932	 82.9619
2864.4591	 82.9559
2864.9250	 82.9488
2865.3910	 82.9404
2865.8569	 82.9308
2866.3228	 82.9200
2866.7887	 82.9080
2867.2546	 82.8948
2867.7205	 82.8804
2868.1865	 82.8650
2868.6524	 82.8486
2869.1183	 82.8315
2869.5842	 82.8136
2870.0501	 82.7953
2870.5161	 82.7766
2870.9820	 82.7578
2871.4479	 82.7389
2871.9138	 82.7203
2872.3797	 82.7021
2872.8456	 82.6843
2873.3116	 82.6673
2873.7775	 82.6511
2874.2434	 82.6357
2874.7093	 82.6214
2875.1752	 82.6080
2875.6411	 82.5956
2876.1071	 82.5843
2876.5730	 82.5739
2877.0389	 82.5645
2877.5048	 82.5558
2877.9707	 82.5477
2878.4366	 82.5403
2878.9026	 82.5332
2879.3685	 82.5263
2879.8344	 82.5196
2880.3003	 82.5128
2880.7662	 82.5058
2881.2321	 82.4985
2881.6981	 82.4907
2882.1640	 82.4824
2882.6299	 82.4736
2883.0958	 82.4641
2883.5617	 82.4539
2884.0277	 82.4430
2884.4936	 82.4316
2884.9595	 82.4196
2885.4254	 82.4071
2885.8913	 82.3942
2886.3572	 82.3809
2886.8232	 82.3675
2887.2891	 82.3541
2887.7550	 82.3406
2888.2209	 82.3273
2888.6868	 82.3143
2889.1527	 82.3017
2889.6187	 82.2894
2890.0846	 82.2777
2890.5505	 82.2665
2891.0164	 82.2558
2891.4823	 82.2457
2891.9482	 82.2361
2892.4142	 82.2269
2892.8801	 82.2182
2893.3460	 82.2099
2893.8119	 82.2018
2894.2778	 82.1938
2894.7437	 82.1860
2895.2097	 82.1781
2895.6756	 82.1701
2896.1415	 82.1620
2896.6074	 82.1535
2897.0733	 82.1447
2897.5393	 82.1356
2898.0052	 82.1261
2898.4711	 82.1162
2898.9370	 82.1058
2899.4029	 82.0951
2899.8688	 82.0841
2900.3348	 82.0727
2900.8007	 82.0610
2901.2666	 82.0492
2901.7325	 82.0372
2902.1984	 82.0251
2902.6643	 82.0130
2903.1303	 82.0009
2903.5962	 81.9887
2904.0621	 81.9766
2904.5280	 81.9646
2904.9939	 81.9525
2905.4598	 81.9404
2905.9258	 81.9282
2906.3917	 81.9159
2906.8576	 81.9033
2907.3235	 81.8903
2907.7894	 81.8770
2908.2553	 81.8631
2908.7213	 81.8485
2909.1872	 81.8333
2909.6531	 81.8172
2910.1190	 81.8002
2910.5849	 81.7824
2911.0509	 81.7636
2911.5168	 81.7438
2911.9827	 81.7231
2912.4486	 81.7016
2912.9145	 81.6794
2913.3804	 81.6565
2913.8464	 81.6331
2914.3123	 81.6094
2914.7782	 81.5855
2915.2441	 81.5617
2915.7100	 81.5382
2916.1759	 81.5151
2916.6419	 81.4927
2917.1078	 81.4713
2917.5737	 81.4509
2918.0396	 81.4318
2918.5055	 81.4141
2918.9714	 81.3980
2919.4374	 81.3834
2919.9033	 81.3706
2920.3692	 81.3594
2920.8351	 81.3499
2921.3010	 81.3420
2921.7669	 81.3357
2922.2329	 81.3307
2922.6988	 81.3270
2923.1647	 81.3245
2923.6306	 81.3228
2924.0965	 81.3219
2924.5625	 81.3216
2925.0284	 81.3217
2925.4943	 81.3221
2925.9602	 81.3225
2926.4261	 81.3230
2926.8920	 81.3233
2927.3580	 81.3235
2927.8239	 81.3235
2928.2898	 81.3234
2928.7557	 81.3231
2929.2216	 81.3227
2929.6875	 81.3225
2930.1535	 81.3224
2930.6194	 81.3226
2931.0853	 81.3234
2931.5512	 81.3248
2932.0171	 81.3270
2932.4830	 81.3303
2932.9490	 81.3347
2933.4149	 81.3403
2933.8808	 81.3474
2934.3467	 81.3560
2934.8126	 81.3661
2935.2785	 81.3779
2935.7445	 81.3911
2936.2104	 81.4059
2936.6763	 81.4222
2937.1422	 81.4398
2937.6081	 81.4587
2938.0741	 81.4786
2938.5400	 81.4995
2939.0059	 81.5211
2939.4718	 81.5433
2939.9377	 81.5659
2940.4036	 81.5886
2940.8696	 81.6115
2941.3355	 81.6343
2941.8014	 81.6569
2942.2673	 81.6791
2942.7332	 81.7011
2943.1991	 81.7226
2943.6651	 81.7436
2944.1310	 81.7643
2944.5969	 81.7846
2945.0628	 81.8045
2945.5287	 81.8242
2945.9946	 81.8437
2946.4606	 81.8631
2946.9265	 81.8825
2947.3924	 81.9019
2947.8583	 81.9216
2948.3242	 81.9416
2948.7901	 81.9618
2949.2561	 81.9824
2949.7220	 82.0033
2950.1879	 82.0246
2950.6538	 82.0462
2951.1197	 82.0681
2951.5856	 82.0901
2952.0516	 82.1122
2952.5175	 82.1342
2952.9834	 82.1561
2953.4493	 82.1776
2953.9152	 82.1987
2954.3812	 82.2192
2954.8471	 82.2390
2955.3130	 82.2579
2955.7789	 82.2759
2956.2448	 82.2929
2956.7107	 82.3089
2957.1767	 82.3238
2957.6426	 82.3376
2958.1085	 82.3505
2958.5744	 82.3624
2959.0403	 82.3735
2959.5062	 82.3840
2959.9722	 82.3939
2960.4381	 82.4034
2960.9040	 82.4127
2961.3699	 82.4221
2961.8358	 82.4315
2962.3017	 82.4413
2962.7677	 82.4516
2963.2336	 82.4624
2963.6995	 82.4740
2964.1654	 82.4863
2964.6313	 82.4995
2965.0972	 82.5135
2965.5632	 82.5282
2966.0291	 82.5437
2966.4950	 82.5598
2966.9609	 82.5764
2967.4268	 82.5932
2967.8928	 82.6103
2968.3587	 82.6272
2968.8246	 82.6439
2969.2905	 82.6601
2969.7564	 82.6756
2970.2223	 82.6903
2970.6883	 82.7039
2971.1542	 82.7163
2971.6201	 82.7274
2972.0860	 82.7371
2972.5519	 82.7454
2973.0178	 82.7521
2973.4838	 82.7575
2973.9497	 82.7615
2974.4156	 82.7643
2974.8815	 82.7659
2975.3474	 82.7665
2975.8133	 82.7664
2976.2793	 82.7656
2976.7452	 82.7645
2977.2111	 82.7633
2977.6770	 82.7621
2978.1429	 82.7612
2978.6088	 82.7608
2979.0748	 82.7610
2979.5407	 82.7620
2980.0066	 82.7639
2980.4725	 82.7667
2980.9384	 82.7706
2981.4044	 82.7755
2981.8703	 82.7814
2982.3362	 82.7883
2982.8021	 82.7961
2983.2680	 82.8047
2983.7339	 82.8139
2984.1999	 82.8236
2984.6658	 82.8336
2985.1317	 82.8439
2985.5976	 82.8542
2986.0635	 82.8644
2986.5294	 82.8744
2986.9954	 82.8841
2987.4613	 82.8933
2987.9272	 82.9020
2988.3931	 82.9101
2988.8590	 82.9177
2989.3249	 82.9246
2989.7909	 82.9311
2990.2568	 82.9371
2990.7227	 82.9426
2991.1886	 82.9478
2991.6545	 82.9528
2992.1204	 82.9576
2992.5864	 82.9624
2993.0523	 82.9673
2993.5182	 82.9723
2993.9841	 82.9776
2994.4500	 82.9832
2994.9160	 82.9891
2995.3819	 82.9954
2995.8478	 83.0020
2996.3137	 83.0090
2996.7796	 83.0163
2997.2455	 83.0239
2997.7115	 83.0317
2998.1774	 83.0395
2998.6433	 83.0473
2999.1092	 83.0551
2999.5751	 83.0626
3000.0410	 83.0698
3000.5070	 83.0767
3000.9729	 83.0830
3001.4388	 83.0889
3001.9047	 83.0941
3002.3706	 83.0988
3002.8365	 83.1028
3003.3025	 83.1063
3003.7684	 83.1092
3004.2343	 83.1117
3004.7002	 83.1137
3005.1661	 83.1155
3005.6320	 83.1170
3006.0980	 83.1184
3006.5639	 83.1199
3007.0298	 83.1215
3007.4957	 83.1232
3007.9616	 83.1253
3008.4276	 83.1278
3008.8935	 83.1307
3009.3594	 83.1341
3009.8253	 83.1379
3010.2912	 83.1421
3010.7571	 83.1467
3011.2231	 83.1516
3011.6890	 83.1567
3012.1549	 83.1619
3012.6208	 83.1671
3013.0867	 83.1721
3013.5526	 83.1767
3014.0186	 83.1809
3014.4845	 83.1845
3014.9504	 83.1873
3015.4163	 83.1893
3015.8822	 83.1903
3016.3481	 83.1903
3016.8141	 83.1892
3017.2800	 83.1871
3017.7459	 83.1839
3018.2118	 83.1798
3018.6777	 83.1747
3019.1436	 83.1689
3019.6096	 83.1623
3020.0755	 83.1553
3020.5414	 83.1479
3021.0073	 83.1404
3021.4732	 83.1329
3021.9392	 83.1255
3022.4051	 83.1185
3022.8710	 83.1121
3023.3369	 83.1062
3023.8028	 83.1012
3024.2687	 83.0970
3024.7347	 83.0937
3025.2006	 83.0914
3025.6665	 83.0899
3026.1324	 83.0894
3026.5983	 83.0897
3027.0642	 83.0906
3027.5302	 83.0922
3027.9961	 83.0942
3028.4620	 83.0965
3028.9279	 83.0989
3029.3938	 83.1013
3029.8597	 83.1034
3030.3257	 83.1052
3030.7916	 83.1065
3031.2575	 83.1072
3031.7234	 83.1072
3032.1893	 83.1064
3032.6552	 83.1049
3033.1212	 83.1025
3033.5871	 83.0994
3034.0530	 83.0955
3034.5189	 83.0911
3034.9848	 83.0861
3035.4508	 83.0808
3035.9167	 83.0752
3036.3826	 83.0696
3036.8485	 83.0640
3037.3144	 83.0587
3037.7803	 83.0537
3038.2463	 83.0491
3038.7122	 83.0452
3039.1781	 83.0418
3039.6440	 83.0392
3040.1099	 83.0372
3040.5758	 83.0360
3041.0418	 83.0353
3041.5077	 83.0351
3041.9736	 83.0354
3042.4395	 83.0360
3042.9054	 83.0367
3043.3713	 83.0373
3043.8373	 83.0378
3044.3032	 83.0378
3044.7691	 83.0374
3045.2350	 83.0362
3045.7009	 83.0342
3046.1668	 83.0313
3046.6328	 83.0273
3047.0987	 83.0223
3047.5646	 83.0161
3048.0305	 83.0089
3048.4964	 83.0007
3048.9624	 82.9916
3049.4283	 82.9816
3049.8942	 82.9710
3050.3601	 82.9600
3050.8260	 82.9486
3051.2919	 82.9372
3051.7579	 82.9258
3052.2238	 82.9148
3052.6897	 82.9044
3053.1556	 82.8946
3053.6215	 82.8857
3054.0874	 82.8779
3054.5534	 82.8711
3055.0193	 82.8655
3055.4852	 82.8612
3055.9511	 82.8580
3056.4170	 82.8561
3056.8829	 82.8552
3057.3489	 82.8553
3057.8148	 82.8562
3058.2807	 82.8579
3058.7466	 82.8600
3059.2125	 82.8625
3059.6784	 82.8651
3060.1444	 82.8676
3060.6103	 82.8700
3061.0762	 82.8719
3061.5421	 82.8734
3062.0080	 82.8742
3062.4740	 82.8744
3062.9399	 82.8738
3063.4058	 82.8724
3063.8717	 82.8704
3064.3376	 82.8677
3064.8035	 82.8644
3065.2695	 82.8606
3065.7354	 82.8566
3066.2013	 82.8524
3066.6672	 82.8482
3067.1331	 82.8442
3067.5990	 82.8405
3068.0650	 82.8374
3068.5309	 82.8349
3068.9968	 82.8332
3069.4627	 82.8324
3069.9286	 82.8325
3070.3945	 82.8337
3070.8605	 82.8358
3071.3264	 82.8389
3071.7923	 82.8429
3072.2582	 82.8478
3072.7241	 82.8534
3073.1900	 82.8595
3073.6560	 82.8660
3074.1219	 82.8728
3074.5878	 82.8797
3075.0537	 82.8864
3075.5196	 82.8929
3075.9856	 82.8989
3076.4515	 82.9044
3076.9174	 82.9091
3077.3833	 82.9131
3077.8492	 82.9162
3078.3151	 82.9185
3078.7811	 82.9198
3079.2470	 82.9203
3079.7129	 82.9200
3080.1788	 82.9190
3080.6447	 82.9173
3081.1106	 82.9151
3081.5766	 82.9126
3082.0425	 82.9098
3082.5084	 82.9068
3082.9743	 82.9039
3083.4402	 82.9011
3083.9061	 82.8985
3084.3721	 82.8963
3084.8380	 82.8945
3085.3039	 82.8930
3085.7698	 82.8920
3086.2357	 82.8914
3086.7016	 82.8913
3087.1676	 82.8914
3087.6335	 82.8918
3088.0994	 82.8923
3088.5653	 82.8928
3089.0312	 82.8933
3089.4971	 82.8936
3089.9631	 82.8936
3090.4290	 82.8931
3090.8949	 82.8922
3091.3608	 82.8907
3091.8267	 82.8885
3092.2927	 82.8857
3092.7586	 82.8822
3093.2245	 82.8780
3093.6904	 82.8733
3094.1563	 82.8680
3094.6222	 82.8622
3095.0882	 82.8561
3095.5541	 82.8498
3096.0200	 82.8434
3096.4859	 82.8371
3096.9518	 82.8309
3097.4177	 82.8251
3097.8837	 82.8197
3098.3496	 82.8148
3098.8155	 82.8105
3099.2814	 82.8070
3099.7473	 82.8041
3100.2132	 82.8019
3100.6792	 82.8005
3101.1451	 82.7996
3101.6110	 82.7993
3102.0769	 82.7995
3102.5428	 82.7999
3103.0087	 82.8006
3103.4747	 82.8013
3103.9406	 82.8018
3104.4065	 82.8021
3104.8724	 82.8020
3105.3383	 82.8013
3105.8043	 82.8000
3106.2702	 82.7979
3106.7361	 82.7950
3107.2020	 82.7913
3107.6679	 82.7866
3108.1338	 82.7811
3108.5998	 82.7749
3109.0657	 82.7678
3109.5316	 82.7602
3109.9975	 82.7520
3110.4634	 82.7434
3110.9293	 82.7346
3111.3953	 82.7258
3111.8612	 82.7169
3112.3271	 82.7083
3112.7930	 82.7001
3113.2589	 82.6923
3113.7248	 82.6850
3114.1908	 82.6783
3114.6567	 82.6723
3115.1226	 82.6669
3115.5885	 82.6622
3116.0544	 82.6581
3116.5203	 82.6545
3116.9863	 82.6513
3117.4522	 82.6483
3117.9181	 82.6456
3118.3840	 82.6428
3118.8499	 82.6399
3119.3159	 82.6367
3119.7818	 82.6331
3120.2477	 82.6290
3120.7136	 82.6242
3121.1795	 82.6187
3121.6454	 82.6125
3122.1114	 82.6056
3122.5773	 82.5979
3123.0432	 82.5895
3123.5091	 82.5805
3123.9750	 82.5710
3124.4409	 82.5612
3124.9069	 82.5512
3125.3728	 82.5411
3125.8387	 82.5311
3126.3046	 82.5215
3126.7705	 82.5123
3127.2364	 82.5038
3127.7024	 82.4961
3128.1683	 82.4893
3128.6342	 82.4835
3129.1001	 82.4787
3129.5660	 82.4751
3130.0319	 82.4725
3130.4979	 82.4710
3130.9638	 82.4704
3131.4297	 82.4706
3131.8956	 82.4715
3132.3615	 82.4729
3132.8275	 82.4747
3133.2934	 82.4765
3133.7593	 82.4783
3134.2252	 82.4798
3134.6911	 82.4807
3135.1570	 82.4810
3135.6230	 82.4805
3136.0889	 82.4790
3136.5548	 82.4765
3137.0207	 82.4728
3137.4866	 82.4680
3137.9525	 82.4620
3138.4185	 82.4550
3138.8844	 82.4470
3139.3503	 82.4381
3139.8162	 82.4285
3140.2821	 82.4184
3140.7480	 82.4078
3141.2140	 82.3971
3141.6799	 82.3864
3142.1458	 82.3759
3142.6117	 82.3657
3143.0776	 82.3561
3143.5435	 82.3471
3144.0095	 82.3389
3144.4754	 82.3315
3144.9413	 82.3249
3145.4072	 82.3191
3145.8731	 82.3141
3146.3391	 82.3098
3146.8050	 82.3061
3147.2709	 82.3028
3147.7368	 82.2998
3148.2027	 82.2969
3148.6686	 82.2938
3149.1346	 82.2905
3149.6005	 82.2868
3150.0664	 82.2824
3150.5323	 82.2773
3150.9982	 82.2713
3151.4641	 82.2643
3151.9301	 82.2564
3152.3960	 82.2475
3152.8619	 82.2377
3153.3278	 82.2270
3153.7937	 82.2155
3154.2596	 82.2035
3154.7256	 82.1910
3155.1915	 82.1784
3155.6574	 82.1657
3156.1233	 82.1532
3156.5892	 82.1412
3157.0551	 82.1299
3157.5211	 82.1194
3157.9870	 82.1100
3158.4529	 82.1017
3158.9188	 82.0947
3159.3847	 82.0891
3159.8507	 82.0848
3160.3166	 82.0819
3160.7825	 82.0803
3161.2484	 82.0798
3161.7143	 82.0802
3162.1802	 82.0815
3162.6462	 82.0834
3163.1121	 82.0856
3163.5780	 82.0878
3164.0439	 82.0898
3164.5098	 82.0913
3164.9757	 82.0921
3165.4417	 82.0920
3165.9076	 82.0907
3166.3735	 82.0880
3166.8394	 82.0839
3167.3053	 82.0782
3167.7712	 82.0710
3168.2372	 82.0622
3168.7031	 82.0519
3169.1690	 82.0402
3169.6349	 82.0273
3170.1008	 82.0134
3170.5667	 81.9986
3171.0327	 81.9832
3171.4986	 81.9675
3171.9645	 81.9518
3172.4304	 81.9362
3172.8963	 81.9211
3173.3623	 81.9067
3173.8282	 81.8932
3174.2941	 81.8807
3174.7600	 81.8694
3175.2259	 81.8594
3175.6918	 81.8507
3176.1578	 81.8432
3176.6237	 81.8370
3177.0896	 81.8319
3177.5555	 81.8277
3178.0214	 81.8243
3178.4873	 81.8216
3178.9533	 81.8192
3179.4192	 81.8169
3179.8851	 81.8145
3180.3510	 81.8117
3180.8169	 81.8084
3181.2828	 81.8043
3181.7488	 81.7992
3182.2147	 81.7931
3182.6806	 81.7857
3183.1465	 81.7771
3183.6124	 81.7672
3184.0783	 81.7560
3184.5443	 81.7437
3185.0102	 81.7302
3185.4761	 81.7157
3185.9420	 81.7005
3186.4079	 81.6846
3186.8739	 81.6682
3187.3398	 81.6516
3187.8057	 81.6350
3188.2716	 81.6185
3188.7375	 81.6024
3189.2034	 81.5868
3189.6694	 81.5719
3190.1353	 81.5577
3190.6012	 81.5444
3191.0671	 81.5320
3191.5330	 81.5205
3191.9989	 81.5099
3192.4649	 81.5002
3192.9308	 81.4913
3193.3967	 81.4831
3193.8626	 81.4755
3194.3285	 81.4684
3194.7944	 81.4617
3195.2604	 81.4552
3195.7263	 81.4488
3196.1922	 81.4424
3196.6581	 81.4359
3197.1240	 81.4293
3197.5899	 81.4226
3198.0559	 81.4156
3198.5218	 81.4084
3198.9877	 81.4010
3199.4536	 81.3934
3199.9195	 81.3858
3200.3855	 81.3781
3200.8514	 81.3705
3201.3173	 81.3631
3201.7832	 81.3559
3202.2491	 81.3490
3202.7150	 81.3425
3203.1810	 81.3365
3203.6469	 81.3309
3204.1128	 81.3259
3204.5787	 81.3212
3205.0446	 81.3170
3205.5105	 81.3131
3205.9765	 81.3095
3206.4424	 81.3059
3206.9083	 81.3023
3207.3742	 81.2985
3207.8401	 81.2944
3208.3060	 81.2897
3208.7720	 81.2842
3209.2379	 81.2779
3209.7038	 81.2706
3210.1697	 81.2621
3210.6356	 81.2524
3211.1015	 81.2414
3211.5675	 81.2291
3212.0334	 81.2155
3212.4993	 81.2006
3212.9652	 81.1846
3213.4311	 81.1677
3213.8971	 81.1498
3214.3630	 81.1313
3214.8289	 81.1125
3215.2948	 81.0934
3215.7607	 81.0744
3216.2266	 81.0558
3216.6926	 81.0377
3217.1585	 81.0204
3217.6244	 81.0042
3218.0903	 80.9892
3218.5562	 80.9755
3219.0221	 80.9633
3219.4881	 80.9526
3219.9540	 80.9435
3220.4199	 80.9358
3220.8858	 80.9296
3221.3517	 80.9246
3221.8176	 80.9208
3222.2836	 80.9180
3222.7495	 80.9159
3223.2154	 80.9142
3223.6813	 80.9128
3224.1472	 80.9113
3224.6131	 80.9096
3225.0791	 80.9073
3225.5450	 80.9043
3226.0109	 80.9005
3226.4768	 80.8956
3226.9427	 80.8896
3227.4086	 80.8823
3227.8746	 80.8739
3228.3405	 80.8643
3228.8064	 80.8536
3229.2723	 80.8419
3229.7382	 80.8295
3230.2042	 80.8163
3230.6701	 80.8028
3231.1360	 80.7890
3231.6019	 80.7753
3232.0678	 80.7618
3232.5337	 80.7488
3232.9997	 80.7365
3233.4656	 80.7250
3233.9315	 80.7145
3234.3974	 80.7051
3234.8633	 80.6968
3235.3292	 80.6897
3235.7952	 80.6838
3236.2611	 80.6790
3236.7270	 80.6752
3237.1929	 80.6722
3237.6588	 80.6699
3238.1247	 80.6681
3238.5907	 80.6666
3239.0566	 80.6652
3239.5225	 80.6636
3239.9884	 80.6617
3240.4543	 80.6592
3240.9202	 80.6560
3241.3862	 80.6520
3241.8521	 80.6470
3242.3180	 80.6410
3242.7839	 80.6339
3243.2498	 80.6258
3243.7158	 80.6167
3244.1817	 80.6066
3244.6476	 80.5957
3245.1135	 80.5841
3245.5794	 80.5720
3246.0453	 80.5596
3246.5113	 80.5469
3246.9772	 80.5343
3247.4431	 80.5218
3247.9090	 80.5097
3248.3749	 80.4980
3248.8408	 80.4869
3249.3068	 80.4765
3249.7727	 80.4667
3250.2386	 80.4577
3250.7045	 80.4492
3251.1704	 80.4414
3251.6363	 80.4341
3252.1023	 80.4272
3252.5682	 80.4205
3253.0341	 80.4139
3253.5000	 80.4072
3253.9659	 80.4003
3254.4318	 80.3929
3254.8978	 80.3850
3255.3637	 80.3763
3255.8296	 80.3670
3256.2955	 80.3567
3256.7614	 80.3457
3257.2274	 80.3337
3257.6933	 80.3210
3258.1592	 80.3076
3258.6251	 80.2937
3259.0910	 80.2793
3259.5569	 80.2648
3260.0229	 80.2503
3260.4888	 80.2360
3260.9547	 80.2222
3261.4206	 80.2091
3261.8865	 80.1970
3262.3524	 80.1861
3262.8184	 80.1766
3263.2843	 80.1686
3263.7502	 80.1622
3264.2161	 80.1575
3264.6820	 80.1545
3265.1479	 80.1532
3265.6139	 80.1536
3266.0798	 80.1554
3266.5457	 80.1586
3267.0116	 80.1629
3267.4775	 80.1681
3267.9434	 80.1739
3268.4094	 80.1800
3268.8753	 80.1861
3269.3412	 80.1920
3269.8071	 80.1973
3270.2730	 80.2018
3270.7390	 80.2053
3271.2049	 80.2076
3271.6708	 80.2084
3272.1367	 80.2078
3272.6026	 80.2057
3273.0685	 80.2019
3273.5345	 80.1967
3274.0004	 80.1900
3274.4663	 80.1819
3274.9322	 80.1728
3275.3981	 80.1627
3275.8640	 80.1519
3276.3300	 80.1406
3276.7959	 80.1290
3277.2618	 80.1175
3277.7277	 80.1062
3278.1936	 80.0954
3278.6595	 80.0853
3279.1255	 80.0760
3279.5914	 80.0676
3280.0573	 80.0603
3280.5232	 80.0540
3280.9891	 80.0489
3281.4550	 80.0449
3281.9210	 80.0418
3282.3869	 80.0397
3282.8528	 80.0384
3283.3187	 80.0377
3283.7846	 80.0375
3284.2506	 80.0376
3284.7165	 80.0379
3285.1824	 80.0381
3285.6483	 80.0383
3286.1142	 80.0382
3286.5801	 80.0378
3287.0461	 80.0369
3287.5120	 80.0356
3287.9779	 80.0339
3288.4438	 80.0317
3288.9097	 80.0292
3289.3756	 80.0264
3289.8416	 80.0235
3290.3075	 80.0205
3290.7734	 80.0176
3291.2393	 80.0149
3291.7052	 80.0125
3292.1711	 80.0107
3292.6371	 80.0094
3293.1030	 80.0088
3293.5689	 80.0090
3294.0348	 80.0099
3294.5007	 80.0115
3294.9666	 80.0139
3295.4326	 80.0168
3295.8985	 80.0203
3296.3644	 80.0242
3296.8303	 80.0283
3297.2962	 80.0324
3297.7622	 80.0364
3298.2281	 80.0400
3298.6940	 80.0430
3299.1599	 80.0454
3299.6258	 80.0468
3300.0917	 80.0473
3300.5577	 80.0466
3301.0236	 80.0447
3301.4895	 80.0415
3301.9554	 80.0372
3302.4213	 80.0317
3302.8872	 80.0252
3303.3532	 80.0178
3303.8191	 80.0097
3304.2850	 80.0010
3304.7509	 79.9921
3305.2168	 79.9831
3305.6827	 79.9743
3306.1487	 79.9660
3306.6146	 79.9585
3307.0805	 79.9519
3307.5464	 79.9464
3308.0123	 79.9423
3308.4782	 79.9395
3308.9442	 79.9383
3309.4101	 79.9385
3309.8760	 79.9402
3310.3419	 79.9433
3310.8078	 79.9477
3311.2738	 79.9531
3311.7397	 79.9594
3312.2056	 79.9662
3312.6715	 79.9734
3313.1374	 79.9805
3313.6033	 79.9874
3314.0693	 79.9937
3314.5352	 79.9991
3315.0011	 80.0033
3315.4670	 80.0063
3315.9329	 80.0077
3316.3988	 80.0075
3316.8648	 80.0055
3317.3307	 80.0018
3317.7966	 79.9964
3318.2625	 79.9894
3318.7284	 79.9808
3319.1943	 79.9710
3319.6603	 79.9601
3320.1262	 79.9483
3320.5921	 79.9360
3321.0580	 79.9235
3321.5239	 79.9111
3321.9898	 79.8990
3322.4558	 79.8877
3322.9217	 79.8773
3323.3876	 79.8680
3323.8535	 79.8602
3324.3194	 79.8539
3324.7854	 79.8492
3325.2513	 79.8462
3325.7172	 79.8448
3326.1831	 79.8451
3326.6490	 79.8468
3327.1149	 79.8499
3327.5809	 79.8541
3328.0468	 79.8593
3328.5127	 79.8651
3328.9786	 79.8713
3329.4445	 79.8777
3329.9104	 79.8839
3330.3764	 79.8897
3330.8423	 79.8950
3331.3082	 79.8995
3331.7741	 79.9030
3332.2400	 79.9055
3332.7059	 79.9069
3333.1719	 79.9071
3333.6378	 79.9062
3334.1037	 79.9043
3334.5696	 79.9015
3335.0355	 79.8978
3335.5014	 79.8935
3335.9674	 79.8888
3336.4333	 79.8838
3336.8992	 79.8789
3337.3651	 79.8741
3337.8310	 79.8698
3338.2970	 79.8660
3338.7629	 79.8630
3339.2288	 79.8608
3339.6947	 79.8596
3340.1606	 79.8595
3340.6265	 79.8603
3341.0925	 79.8623
3341.5584	 79.8651
3342.0243	 79.8689
3342.4902	 79.8734
3342.9561	 79.8786
3343.4220	 79.8843
3343.8880	 79.8903
3344.3539	 79.8965
3344.8198	 79.9027
3345.2857	 79.9088
3345.7516	 79.9147
3346.2175	 79.9202
3346.6835	 79.9253
3347.1494	 79.9301
3347.6153	 79.9344
3348.0812	 79.9383
3348.5471	 79.9418
3349.0130	 79.9451
3349.4790	 79.9482
3349.9449	 79.9514
3350.4108	 79.9546
3350.8767	 79.9581
3351.3426	 79.9620
3351.8086	 79.9665
3352.2745	 79.9716
3352.7404	 79.9774
3353.2063	 79.9841
3353.6722	 79.9917
3354.1381	 80.0002
3354.6041	 80.0095
3355.0700	 80.0195
3355.5359	 80.0303
3356.0018	 80.0416
3356.4677	 80.0533
3356.9336	 80.0652
3357.3996	 80.0771
3357.8655	 80.0887
3358.3314	 80.1000
3358.7973	 80.1106
3359.2632	 80.1204
3359.7291	 80.1292
3360.1951	 80.1369
3360.6610	 80.1434
3361.1269	 80.1486
3361.5928	 80.1526
3362.0587	 80.1553
3362.5246	 80.1569
3362.9906	 80.1574
3363.4565	 80.1570
3363.9224	 80.1560
3364.3883	 80.1545
3364.8542	 80.1529
3365.3201	 80.1513
3365.7861	 80.1500
3366.2520	 80.1494
3366.7179	 80.1495
3367.1838	 80.1508
3367.6497	 80.1532
3368.1157	 80.1571
3368.5816	 80.1625
3369.0475	 80.1694
3369.5134	 80.1779
3369.9793	 80.1878
3370.4452	 80.1992
3370.9112	 80.2118
3371.3771	 80.2254
3371.8430	 80.2399
3372.3089	 80.2549
3372.7748	 80.2702
3373.2407	 80.2855
3373.7067	 80.3006
3374.1726	 80.3150
3374.6385	 80.3287
3375.1044	 80.3414
3375.5703	 80.3529
3376.0362	 80.3630
3376.5022	 80.3717
3376.9681	 80.3790
3377.4340	 80.3848
3377.8999	 80.3893
3378.3658	 80.3925
3378.8317	 80.3946
3379.2977	 80.3959
3379.7636	 80.3965
3380.2295	 80.3967
3380.6954	 80.3968
3381.1613	 80.3971
3381.6273	 80.3979
3382.0932	 80.3994
3382.5591	 80.4019
3383.0250	 80.4055
3383.4909	 80.4105
3383.9568	 80.4169
3384.4228	 80.4248
3384.8887	 80.4343
3385.3546	 80.4453
3385.8205	 80.4577
3386.2864	 80.4714
3386.7523	 80.4861
3387.2183	 80.5017
3387.6842	 80.5179
3388.1501	 80.5344
3388.6160	 80.5510
3389.0819	 80.5674
3389.5478	 80.5832
3390.0138	 80.5983
3390.4797	 80.6125
3390.9456	 80.6255
3391.4115	 80.6373
3391.8774	 80.6477
3392.3433	 80.6567
3392.8093	 80.6644
3393.2752	 80.6707
3393.7411	 80.6759
3394.2070	 80.6801
3394.6729	 80.6835
3395.1389	 80.6863
3395.6048	 80.6889
3396.0707	 80.6914
3396.5366	 80.6941
3397.0025	 80.6974
3397.4684	 80.7014
3397.9344	 80.7064
3398.4003	 80.7125
3398.8662	 80.7200
3399.3321	 80.7289
3399.7980	 80.7393
3400.2639	 80.7511
3400.7299	 80.7643
3401.1958	 80.7788
3401.6617	 80.7945
3402.1276	 80.8111
3402.5935	 80.8284
3403.0594	 80.8463
3403.5254	 80.8644
3403.9913	 80.8825
3404.4572	 80.9003
3404.9231	 80.9176
3405.3890	 80.9342
3405.8549	 80.9498
3406.3209	 80.9644
3406.7868	 80.9779
3407.2527	 80.9901
3407.7186	 81.0010
3408.1845	 81.0107
3408.6505	 81.0193
3409.1164	 81.0268
3409.5823	 81.0334
3410.0482	 81.0393
3410.5141	 81.0447
3410.9800	 81.0498
3411.4460	 81.0548
3411.9119	 81.0600
3412.3778	 81.0655
3412.8437	 81.0715
3413.3096	 81.0783
3413.7755	 81.0860
3414.2415	 81.0946
3414.7074	 81.1043
3415.1733	 81.1150
3415.6392	 81.1269
3416.1051	 81.1397
3416.5710	 81.1535
3417.0370	 81.1682
3417.5029	 81.1836
3417.9688	 81.1995
3418.4347	 81.2159
3418.9006	 81.2324
3419.3665	 81.2491
3419.8325	 81.2657
3420.2984	 81.2822
3420.7643	 81.2983
3421.2302	 81.3142
3421.6961	 81.3296
3422.1621	 81.3447
3422.6280	 81.3594
3423.0939	 81.3739
3423.5598	 81.3882
3424.0257	 81.4024
3424.4916	 81.4167
3424.9576	 81.4313
3425.4235	 81.4463
3425.8894	 81.4619
3426.3553	 81.4782
3426.8212	 81.4954
3427.2871	 81.5136
3427.7531	 81.5329
3428.2190	 81.5532
3428.6849	 81.5748
3429.1508	 81.5974
3429.6167	 81.6211
3430.0826	 81.6457
3430.5486	 81.6710
3431.0145	 81.6970
3431.4804	 81.7234
3431.9463	 81.7500
3432.4122	 81.7765
3432.8781	 81.8027
3433.3441	 81.8284
3433.8100	 81.8534
3434.2759	 81.8774
3434.7418	 81.9003
3435.2077	 81.9220
3435.6737	 81.9425
3436.1396	 81.9616
3436.6055	 81.9793
3437.0714	 81.9959
3437.5373	 82.0113
3438.0032	 82.0258
3438.4692	 82.0395
3438.9351	 82.0526
3439.4010	 82.0655
3439.8669	 82.0784
3440.3328	 82.0916
3440.7987	 82.1054
3441.2647	 82.1200
3441.7306	 82.1357
3442.1965	 82.1527
3442.6624	 82.1712
3443.1283	 82.1914
3443.5942	 82.2131
3444.0602	 82.2366
3444.5261	 82.2617
3444.9920	 82.2882
3445.4579	 82.3162
3445.9238	 82.3452
3446.3897	 82.3751
3446.8557	 82.4056
3447.3216	 82.4363
3447.7875	 82.4669
3448.2534	 82.4971
3448.7193	 82.5266
3449.1853	 82.5550
3449.6512	 82.5821
3450.1171	 82.6077
3450.5830	 82.6316
3451.0489	 82.6537
3451.5148	 82.6739
3451.9808	 82.6922
3452.4467	 82.7087
3452.9126	 82.7234
3453.3785	 82.7367
3453.8444	 82.7485
3454.3103	 82.7594
3454.7763	 82.7694
3455.2422	 82.7790
3455.7081	 82.7885
3456.1740	 82.7981
3456.6399	 82.8083
3457.1058	 82.8192
3457.5718	 82.8313
3458.0377	 82.8447
3458.5036	 82.8595
3458.9695	 82.8760
3459.4354	 82.8943
3459.9013	 82.9142
3460.3673	 82.9359
3460.8332	 82.9592
3461.2991	 82.9839
3461.7650	 83.0099
3462.2309	 83.0370
3462.6969	 83.0648
3463.1628	 83.0932
3463.6287	 83.1217
3464.0946	 83.1502
3464.5605	 83.1784
3465.0264	 83.2060
3465.4924	 83.2327
3465.9583	 83.2585
3466.4242	 83.2831
3466.8901	 83.3065
3467.3560	 83.3285
3467.8219	 83.3493
3468.2879	 83.3689
3468.7538	 83.3873
3469.2197	 83.4046
3469.6856	 83.4211
3470.1515	 83.4369
3470.6174	 83.4522
3471.0834	 83.4673
3471.5493	 83.4823
3472.0152	 83.4974
3472.4811	 83.5128
3472.9470	 83.5287
3473.4129	 83.5452
3473.8789	 83.5623
3474.3448	 83.5802
3474.8107	 83.5989
3475.2766	 83.6183
3475.7425	 83.6383
3476.2085	 83.6589
3476.6744	 83.6800
3477.1403	 83.7014
3477.6062	 83.7229
3478.0721	 83.7444
3478.5380	 83.7656
3479.0040	 83.7866
3479.4699	 83.8070
3479.9358	 83.8268
3480.4017	 83.8459
3480.8676	 83.8642
3481.3335	 83.8818
3481.7995	 83.8986
3482.2654	 83.9147
3482.7313	 83.9303
3483.1972	 83.9454
3483.6631	 83.9602
3484.1290	 83.9749
3484.5950	 83.9897
3485.0609	 84.0048
3485.5268	 84.0205
3485.9927	 84.0370
3486.4586	 84.0543
3486.9245	 84.0728
3487.3905	 84.0924
3487.8564	 84.1134
3488.3223	 84.1358
3488.7882	 84.1595
3489.2541	 84.1845
3489.7201	 84.2107
3490.1860	 84.2380
3490.6519	 84.2663
3491.1178	 84.2952
3491.5837	 84.3246
3492.0496	 84.3543
3492.5156	 84.3839
3492.9815	 84.4132
3493.4474	 84.4419
3493.9133	 84.4699
3494.3792	 84.4968
3494.8451	 84.5225
3495.3111	 84.5469
3495.7770	 84.5699
3496.2429	 84.5914
3496.7088	 84.6114
3497.1747	 84.6300
3497.6406	 84.6472
3498.1066	 84.6633
3498.5725	 84.6783
3499.0384	 84.6926
3499.5043	 84.7063
3499.9702	 84.7198
3500.4361	 84.7333
3500.9021	 84.7470
3501.3680	 84.7613
3501.8339	 84.7763
3502.2998	 84.7923
3502.7657	 84.8095
3503.2316	 84.8279
3503.6976	 84.8477
3504.1635	 84.8688
3504.6294	 84.8912
3505.0953	 84.9149
3505.5612	 84.9396
3506.0272	 84.9653
3506.4931	 84.9916
3506.9590	 85.0183
3507.4249	 85.0452
3507.8908	 85.0719
3508.3567	 85.0983
3508.8227	 85.1241
3509.2886	 85.1490
3509.7545	 85.1728
3510.2204	 85.1954
3510.6863	 85.2167
3511.1522	 85.2365
3511.6182	 85.2550
3512.0841	 85.2720
3512.5500	 85.2876
3513.0159	 85.3020
3513.4818	 85.3154
3513.9477	 85.3279
3514.4137	 85.3398
3514.8796	 85.3513
3515.3455	 85.3627
3515.8114	 85.3742
3516.2773	 85.3861
3516.7432	 85.3986
3517.2092	 85.4121
3517.6751	 85.4267
3518.1410	 85.4426
3518.6069	 85.4600
3519.0728	 85.4789
3519.5388	 85.4995
3520.0047	 85.5217
3520.4706	 85.5456
3520.9365	 85.5710
3521.4024	 85.5978
3521.8683	 85.6259
3522.3343	 85.6552
3522.8002	 85.6854
3523.2661	 85.7162
3523.7320	 85.7476
3524.1979	 85.7793
3524.6638	 85.8110
3525.1298	 85.8426
3525.5957	 85.8740
3526.0616	 85.9050
3526.5275	 85.9355
3526.9934	 85.9655
3527.4593	 85.9949
3527.9253	 86.0237
3528.3912	 86.0519
3528.8571	 86.0797
3529.3230	 86.1071
3529.7889	 86.1341
3530.2548	 86.1609
3530.7208	 86.1875
3531.1867	 86.2140
3531.6526	 86.2406
3532.1185	 86.2673
3532.5844	 86.2940
3533.0504	 86.3209
3533.5163	 86.3479
3533.9822	 86.3749
3534.4481	 86.4021
3534.9140	 86.4291
3535.3799	 86.4560
3535.8459	 86.4827
3536.3118	 86.5091
3536.7777	 86.5349
3537.2436	 86.5602
3537.7095	 86.5849
3538.1754	 86.6087
3538.6414	 86.6318
3539.1073	 86.6540
3539.5732	 86.6754
3540.0391	 86.6961
3540.5050	 86.7160
3540.9709	 86.7353
3541.4369	 86.7542
3541.9028	 86.7728
3542.3687	 86.7915
3542.8346	 86.8104
3543.3005	 86.8298
3543.7664	 86.8499
3544.2324	 86.8712
3544.6983	 86.8937
3545.1642	 86.9178
3545.6301	 86.9436
3546.0960	 86.9713
3546.5620	 87.0010
3547.0279	 87.0327
3547.4938	 87.0664
3547.9597	 87.1020
3548.4256	 87.1394
3548.8915	 87.1782
3549.3575	 87.2183
3549.8234	 87.2593
3550.2893	 87.3008
3550.7552	 87.3425
3551.2211	 87.3841
3551.6870	 87.4250
3552.1530	 87.4649
3552.6189	 87.5034
3553.0848	 87.5403
3553.5507	 87.5753
3554.0166	 87.6081
3554.4825	 87.6385
3554.9485	 87.6665
3555.4144	 87.6919
3555.8803	 87.7148
3556.3462	 87.7353
3556.8121	 87.7534
3557.2780	 87.7694
3557.7440	 87.7835
3558.2099	 87.7960
3558.6758	 87.8072
3559.1417	 87.8176
3559.6076	 87.8275
3560.0736	 87.8374
3560.5395	 87.8478
3561.0054	 87.8590
3561.4713	 87.8715
3561.9372	 87.8858
3562.4031	 87.9021
3562.8691	 87.9208
3563.3350	 87.9420
3563.8009	 87.9660
3564.2668	 87.9927
3564.7327	 88.0222
3565.1986	 88.0542
3565.6646	 88.0885
3566.1305	 88.1249
3566.5964	 88.1629
3567.0623	 88.2020
3567.5282	 88.2419
3567.9941	 88.2820
3568.4601	 88.3219
3568.9260	 88.3610
3569.3919	 88.3989
3569.8578	 88.4353
3570.3237	 88.4699
3570.7896	 88.5024
3571.2556	 88.5326
3571.7215	 88.5605
3572.1874	 88.5860
3572.6533	 88.6091
3573.1192	 88.6300
3573.5852	 88.6486
3574.0511	 88.6653
3574.5170	 88.6802
3574.9829	 88.6936
3575.4488	 88.7056
3575.9147	 88.7165
3576.3807	 88.7265
3576.8466	 88.7359
3577.3125	 88.7450
3577.7784	 88.7539
3578.2443	 88.7628
3578.7102	 88.7718
3579.1762	 88.7812
3579.6421	 88.7911
3580.1080	 88.8015
3580.5739	 88.8126
3581.0398	 88.8244
3581.5057	 88.8369
3581.9717	 88.8502
3582.4376	 88.8642
3582.9035	 88.8790
3583.3694	 88.8945
3583.8353	 88.9107
3584.3012	 88.9276
3584.7672	 88.9453
3585.2331	 88.9636
3585.6990	 88.9826
3586.1649	 89.0023
3586.6308	 89.0227
3587.0968	 89.0439
3587.5627	 89.0660
3588.0286	 89.0889
3588.4945	 89.1127
3588.9604	 89.1375
3589.4263	 89.1632
3589.8923	 89.1900
3590.3582	 89.2177
3590.8241	 89.2464
3591.2900	 89.2760
3591.7559	 89.3063
3592.2218	 89.3373
3592.6878	 89.3689
3593.1537	 89.4008
3593.6196	 89.4328
3594.0855	 89.4647
3594.5514	 89.4963
3595.0173	 89.5273
3595.4833	 89.5574
3595.9492	 89.5865
3596.4151	 89.6143
3596.8810	 89.6405
3597.3469	 89.6650
3597.8128	 89.6876
3598.2788	 89.7083
3598.7447	 89.7268
3599.2106	 89.7431
3599.6765	 89.7573
3600.1424	 89.7694
3600.6084	 89.7794
3601.0743	 89.7875
3601.5402	 89.7939
3602.0061	 89.7988
3602.4720	 89.8024
3602.9379	 89.8051
3603.4039	 89.8071
3603.8698	 89.8089
3604.3357	 89.8108
3604.8016	 89.8131
3605.2675	 89.8163
3605.7334	 89.8207
3606.1994	 89.8266
3606.6653	 89.8343
3607.1312	 89.8441
3607.5971	 89.8562
3608.0630	 89.8707
3608.5289	 89.8877
3608.9949	 89.9071
3609.4608	 89.9289
3609.9267	 89.9528
3610.3926	 89.9787
3610.8585	 90.0062
3611.3244	 90.0350
3611.7904	 90.0647
3612.2563	 90.0948
3612.7222	 90.1250
3613.1881	 90.1548
3613.6540	 90.1838
3614.1200	 90.2118
3614.5859	 90.2384
3615.0518	 90.2633
3615.5177	 90.2863
3615.9836	 90.3075
3616.4495	 90.3267
3616.9155	 90.3439
3617.3814	 90.3592
3617.8473	 90.3728
3618.3132	 90.3849
3618.7791	 90.3957
3619.2450	 90.4054
3619.7110	 90.4145
3620.1769	 90.4231
3620.6428	 90.4318
3621.1087	 90.4407
3621.5746	 90.4503
3622.0405	 90.4608
3622.5065	 90.4726
3622.9724	 90.4858
3623.4383	 90.5008
3623.9042	 90.5177
3624.3701	 90.5366
3624.8360	 90.5575
3625.3020	 90.5804
3625.7679	 90.6053
3626.2338	 90.6320
3626.6997	 90.6603
3627.1656	 90.6900
3627.6316	 90.7208
3628.0975	 90.7523
3628.5634	 90.7842
3629.0293	 90.8162
3629.4952	 90.8480
3629.9611	 90.8791
3630.4271	 90.9095
3630.8930	 90.9387
3631.3589	 90.9666
3631.8248	 90.9931
3632.2907	 91.0180
3632.7566	 91.0414
3633.2226	 91.0631
3633.6885	 91.0831
3634.1544	 91.1016
3634.6203	 91.1187
3635.0862	 91.1343
3635.5521	 91.1485
3636.0181	 91.1616
3636.4840	 91.1736
3636.9499	 91.1847
3637.4158	 91.1948
3637.8817	 91.2042
3638.3476	 91.2129
3638.8136	 91.2210
3639.2795	 91.2286
3639.7454	 91.2358
3640.2113	 91.2426
3640.6772	 91.2492
3641.1431	 91.2556
3641.6091	 91.2620
3642.0750	 91.2683
3642.5409	 91.2749
3643.0068	 91.2817
3643.4727	 91.2891
3643.9387	 91.2971
3644.4046	 91.3059
3644.8705	 91.3160
3645.3364	 91.3274
3645.8023	 91.3404
3646.2682	 91.3555
3646.7342	 91.3727
3647.2001	 91.3924
3647.6660	 91.4147
3648.1319	 91.4399
3648.5978	 91.4679
3649.0637	 91.4988
3649.5297	 91.5325
3649.9956	 91.5687
3650.4615	 91.6071
3650.9274	 91.6475
3651.3933	 91.6892
3651.8592	 91.7319
3652.3252	 91.7750
3652.7911	 91.8180
3653.2570	 91.8602
3653.7229	 91.9013
3654.1888	 91.9408
3654.6547	 91.9783
3655.1207	 92.0135
3655.5866	 92.0461
3656.0525	 92.0758
3656.5184	 92.1025
3656.9843	 92.1262
3657.4503	 92.1468
3657.9162	 92.1641
3658.3821	 92.1784
3658.8480	 92.1897
3659.3139	 92.1980
3659.7798	 92.2036
3660.2458	 92.2065
3660.7117	 92.2069
3661.1776	 92.2052
3661.6435	 92.2014
3662.1094	 92.1960
3662.5753	 92.1891
3663.0413	 92.1812
3663.5072	 92.1725
3663.9731	 92.1635
3664.4390	 92.1545
3664.9049	 92.1460
3665.3708	 92.1385
3665.8368	 92.1322
3666.3027	 92.1278
3666.7686	 92.1257
3667.2345	 92.1263
3667.7004	 92.1299
3668.1663	 92.1369
3668.6323	 92.1476
3669.0982	 92.1620
3669.5641	 92.1803
3670.0300	 92.2023
3670.4959	 92.2278
3670.9619	 92.2565
3671.4278	 92.2879
3671.8937	 92.3215
3672.3596	 92.3565
3672.8255	 92.3923
3673.2914	 92.4281
3673.7574	 92.4633
3674.2233	 92.4972
3674.6892	 92.5292
3675.1551	 92.5588
3675.6210	 92.5858
3676.0869	 92.6098
3676.5529	 92.6306
3677.0188	 92.6483
3677.4847	 92.6629
3677.9506	 92.6745
3678.4165	 92.6832
3678.8824	 92.6894
3679.3484	 92.6933
3679.8143	 92.6952
3680.2802	 92.6953
3680.7461	 92.6941
3681.2120	 92.6917
3681.6779	 92.6885
3682.1439	 92.6848
3682.6098	 92.6808
3683.0757	 92.6767
3683.5416	 92.6728
3684.0075	 92.6692
3684.4735	 92.6661
3684.9394	 92.6637
3685.4053	 92.6619
3685.8712	 92.6609
3686.3371	 92.6606
3686.8030	 92.6613
3687.2690	 92.6627
3687.7349	 92.6648
3688.2008	 92.6677
3688.6667	 92.6712
3689.1326	 92.6752
3689.5985	 92.6797
3690.0645	 92.6845
3690.5304	 92.6894
3690.9963	 92.6945
3691.4622	 92.6996
3691.9281	 92.7045
3692.3940	 92.7092
3692.8600	 92.7137
3693.3259	 92.7178
3693.7918	 92.7215
3694.2577	 92.7247
3694.7236	 92.7274
3695.1895	 92.7296
3695.6555	 92.7313
3696.1214	 92.7323
3696.5873	 92.7328
3697.0532	 92.7327
3697.5191	 92.7320
3697.9851	 92.7306
3698.4510	 92.7286
3698.9169	 92.7259
3699.3828	 92.7225
3699.8487	 92.7185
3700.3146	 92.7138
3700.7806	 92.7085
3701.2465	 92.7024
3701.7124	 92.6958
3702.1783	 92.6886
3702.6442	 92.6808
3703.1101	 92.6726
3703.5761	 92.6640
3704.0420	 92.6552
3704.5079	 92.6463
3704.9738	 92.6375
3705.4397	 92.6289
3705.9056	 92.6207
3706.3716	 92.6131
3706.8375	 92.6063
3707.3034	 92.6006
3707.7693	 92.5962
3708.2352	 92.5931
3708.7011	 92.5916
3709.1671	 92.5918
3709.6330	 92.5937
3710.0989	 92.5975
3710.5648	 92.6030
3711.0307	 92.6102
3711.4967	 92.6190
3711.9626	 92.6292
3712.4285	 92.6405
3712.8944	 92.6528
3713.3603	 92.6656
3713.8262	 92.6788
3714.2922	 92.6920
3714.7581	 92.7048
3715.2240	 92.7170
3715.6899	 92.7283
3716.1558	 92.7385
3716.6217	 92.7472
3717.0877	 92.7544
3717.5536	 92.7599
3718.0195	 92.7636
3718.4854	 92.7653
3718.9513	 92.7652
3719.4172	 92.7632
3719.8832	 92.7595
3720.3491	 92.7540
3720.8150	 92.7470
3721.2809	 92.7386
3721.7468	 92.7290
3722.2127	 92.7184
3722.6787	 92.7072
3723.1446	 92.6955
3723.6105	 92.6835
3724.0764	 92.6717
3724.5423	 92.6602
3725.0083	 92.6494
3725.4742	 92.6393
3725.9401	 92.6303
3726.4060	 92.6226
3726.8719	 92.6163
3727.3378	 92.6115
3727.8038	 92.6083
3728.2697	 92.6067
3728.7356	 92.6066
3729.2015	 92.6081
3729.6674	 92.6110
3730.1333	 92.6150
3730.5993	 92.6200
3731.0652	 92.6258
3731.5311	 92.6321
3731.9970	 92.6385
3732.4629	 92.6449
3732.9288	 92.6510
3733.3948	 92.6565
3733.8607	 92.6612
3734.3266	 92.6649
3734.7925	 92.6674
3735.2584	 92.6687
3735.7243	 92.6688
3736.1903	 92.6675
3736.6562	 92.6650
3737.1221	 92.6613
3737.5880	 92.6565
3738.0539	 92.6509
3738.5199	 92.6445
3738.9858	 92.6375
3739.4517	 92.6303
3739.9176	 92.6229
3740.3835	 92.6156
3740.8494	 92.6087
3741.3154	 92.6022
3741.7813	 92.5964
3742.2472	 92.5913
3742.7131	 92.5872
3743.1790	 92.5840
3743.6449	 92.5818
3744.1109	 92.5806
3744.5768	 92.5803
3745.0427	 92.5808
3745.5086	 92.5820
3745.9745	 92.5837
3746.4404	 92.5859
3746.9064	 92.5882
3747.3723	 92.5906
3747.8382	 92.5927
3748.3041	 92.5945
3748.7700	 92.5959
3749.2359	 92.5966
3749.7019	 92.5966
3750.1678	 92.5958
3750.6337	 92.5943
3751.0996	 92.5920
3751.5655	 92.5889
3752.0315	 92.5853
3752.4974	 92.5810
3752.9633	 92.5764
3753.4292	 92.5713
3753.8951	 92.5661
3754.3610	 92.5607
3754.8270	 92.5553
3755.2929	 92.5499
3755.7588	 92.5447
3756.2247	 92.5397
3756.6906	 92.5348
3757.1565	 92.5302
3757.6225	 92.5258
3758.0884	 92.5216
3758.5543	 92.5176
3759.0202	 92.5136
3759.4861	 92.5097
3759.9520	 92.5057
3760.4180	 92.5017
3760.8839	 92.4974
3761.3498	 92.4929
3761.8157	 92.4881
3762.2816	 92.4828
3762.7475	 92.4772
3763.2135	 92.4710
3763.6794	 92.4644
3764.1453	 92.4573
3764.6112	 92.4497
3765.0771	 92.4416
3765.5431	 92.4332
3766.0090	 92.4245
3766.4749	 92.4155
3766.9408	 92.4065
3767.4067	 92.3974
3767.8726	 92.3884
3768.3386	 92.3796
3768.8045	 92.3711
3769.2704	 92.3630
3769.7363	 92.3555
3770.2022	 92.3485
3770.6681	 92.3422
3771.1341	 92.3365
3771.6000	 92.3316
3772.0659	 92.3274
3772.5318	 92.3238
3772.9977	 92.3210
3773.4636	 92.3187
3773.9296	 92.3169
3774.3955	 92.3156
3774.8614	 92.3147
3775.3273	 92.3140
3775.7932	 92.3136
3776.2591	 92.3133
3776.7251	 92.3130
3777.1910	 92.3127
3777.6569	 92.3124
3778.1228	 92.3120
3778.5887	 92.3115
3779.0546	 92.3110
3779.5206	 92.3105
3779.9865	 92.3099
3780.4524	 92.3094
3780.9183	 92.3090
3781.3842	 92.3088
3781.8502	 92.3089
3782.3161	 92.3092
3782.7820	 92.3100
3783.2479	 92.3112
3783.7138	 92.3129
3784.1797	 92.3151
3784.6457	 92.3178
3785.1116	 92.3210
3785.5775	 92.3246
3786.0434	 92.3287
3786.5093	 92.3330
3786.9752	 92.3376
3787.4412	 92.3423
3787.9071	 92.3470
3788.3730	 92.3515
3788.8389	 92.3557
3789.3048	 92.3595
3789.7707	 92.3627
3790.2367	 92.3651
3790.7026	 92.3667
3791.1685	 92.3673
3791.6344	 92.3669
3792.1003	 92.3653
3792.5662	 92.3625
3793.0322	 92.3585
3793.4981	 92.3533
3793.9640	 92.3470
3794.4299	 92.3397
3794.8958	 92.3314
3795.3618	 92.3224
3795.8277	 92.3128
3796.2936	 92.3029
3796.7595	 92.2930
3797.2254	 92.2834
3797.6913	 92.2742
3798.1573	 92.2659
3798.6232	 92.2586
3799.0891	 92.2527
3799.5550	 92.2482
3800.0209	 92.2455
3800.4868	 92.2445
3800.9528	 92.2452
3801.4187	 92.2477
3801.8846	 92.2518
3802.3505	 92.2574
3802.8164	 92.2641
3803.2823	 92.2718
3803.7483	 92.2801
3804.2142	 92.2887
3804.6801	 92.2972
3805.1460	 92.3054
3805.6119	 92.3129
3806.0778	 92.3195
3806.5438	 92.3249
3807.0097	 92.3289
3807.4756	 92.3314
3807.9415	 92.3323
3808.4074	 92.3314
3808.8734	 92.3289
3809.3393	 92.3247
3809.8052	 92.3189
3810.2711	 92.3116
3810.7370	 92.3030
3811.2029	 92.2933
3811.6689	 92.2828
3812.1348	 92.2716
3812.6007	 92.2602
3813.0666	 92.2487
3813.5325	 92.2375
3813.9984	 92.2269
3814.4644	 92.2173
3814.9303	 92.2089
3815.3962	 92.2020
3815.8621	 92.1968
3816.3280	 92.1935
3816.7939	 92.1922
3817.2599	 92.1930
3817.7258	 92.1958
3818.1917	 92.2006
3818.6576	 92.2072
3819.1235	 92.2153
3819.5894	 92.2247
3820.0554	 92.2350
3820.5213	 92.2458
3820.9872	 92.2568
3821.4531	 92.2676
3821.9190	 92.2777
3822.3850	 92.2869
3822.8509	 92.2948
3823.3168	 92.3012
3823.7827	 92.3058
3824.2486	 92.3085
3824.7145	 92.3092
3825.1805	 92.3079
3825.6464	 92.3047
3826.1123	 92.2995
3826.5782	 92.2925
3827.0441	 92.2839
3827.5100	 92.2738
3827.9760	 92.2625
3828.4419	 92.2503
3828.9078	 92.2374
3829.3737	 92.2241
3829.8396	 92.2107
3830.3055	 92.1975
3830.7715	 92.1848
3831.2374	 92.1729
3831.7033	 92.1619
3832.1692	 92.1523
3832.6351	 92.1441
3833.1010	 92.1376
3833.5670	 92.1328
3834.0329	 92.1298
3834.4988	 92.1286
3834.9647	 92.1292
3835.4306	 92.1315
3835.8966	 92.1353
3836.3625	 92.1404
3836.8284	 92.1467
3837.2943	 92.1537
3837.7602	 92.1614
3838.2261	 92.1692
3838.6921	 92.1771
3839.1580	 92.1847
3839.6239	 92.1918
3840.0898	 92.1982
3840.5557	 92.2037
3841.0216	 92.2082
3841.4876	 92.2116
3841.9535	 92.2139
3842.4194	 92.2149
3842.8853	 92.2149
3843.3512	 92.2138
3843.8171	 92.2116
3844.2831	 92.2086
3844.7490	 92.2048
3845.2149	 92.2003
3845.6808	 92.1953
3846.1467	 92.1900
3846.6126	 92.1844
3847.0786	 92.1786
3847.5445	 92.1729
3848.0104	 92.1673
3848.4763	 92.1619
3848.9422	 92.1568
3849.4082	 92.1521
3849.8741	 92.1478
3850.3400	 92.1439
3850.8059	 92.1405
3851.2718	 92.1375
3851.7377	 92.1349
3852.2037	 92.1326
3852.6696	 92.1307
3853.1355	 92.1289
3853.6014	 92.1273
3854.0673	 92.1257
3854.5332	 92.1242
3854.9992	 92.1225
3855.4651	 92.1207
3855.9310	 92.1188
3856.3969	 92.1165
3856.8628	 92.1141
3857.3287	 92.1113
3857.7947	 92.1083
3858.2606	 92.1051
3858.7265	 92.1016
3859.1924	 92.0980
3859.6583	 92.0942
3860.1242	 92.0904
3860.5902	 92.0865
3861.0561	 92.0826
3861.5220	 92.0788
3861.9879	 92.0751
3862.4538	 92.0715
3862.9198	 92.0682
3863.3857	 92.0650
3863.8516	 92.0620
3864.3175	 92.0593
3864.7834	 92.0569
3865.2493	 92.0546
3865.7153	 92.0527
3866.1812	 92.0510
3866.6471	 92.0496
3867.1130	 92.0483
3867.5789	 92.0473
3868.0448	 92.0465
3868.5108	 92.0459
3868.9767	 92.0455
3869.4426	 92.0452
3869.9085	 92.0451
3870.3744	 92.0451
3870.8403	 92.0453
3871.3063	 92.0456
3871.7722	 92.0459
3872.2381	 92.0464
3872.7040	 92.0470
3873.1699	 92.0476
3873.6358	 92.0483
3874.1018	 92.0490
3874.5677	 92.0498
3875.0336	 92.0505
3875.4995	 92.0512
3875.9654	 92.0518
3876.4314	 92.0523
3876.8973	 92.0527
3877.3632	 92.0528
3877.8291	 92.0528
3878.2950	 92.0525
3878.7609	 92.0519
3879.2269	 92.0510
3879.6928	 92.0497
3880.1587	 92.0482
3880.6246	 92.0462
3881.0905	 92.0439
3881.5564	 92.0413
3882.0224	 92.0384
3882.4883	 92.0352
3882.9542	 92.0318
3883.4201	 92.0282
3883.8860	 92.0245
3884.3519	 92.0208
3884.8179	 92.0171
3885.2838	 92.0136
3885.7497	 92.0102
3886.2156	 92.0071
3886.6815	 92.0043
3887.1474	 92.0019
3887.6134	 91.9999
3888.0793	 91.9983
3888.5452	 91.9971
3889.0111	 91.9964
3889.4770	 91.9960
3889.9430	 91.9961
3890.4089	 91.9964
3890.8748	 91.9970
3891.3407	 91.9977
3891.8066	 91.9985
3892.2725	 91.9992
3892.7385	 91.9999
3893.2044	 92.0003
3893.6703	 92.0004
3894.1362	 92.0001
3894.6021	 91.9992
3895.0680	 91.9978
3895.5340	 91.9958
3895.9999	 91.9932
3896.4658	 91.9898
3896.9317	 91.9859
3897.3976	 91.9813
3897.8635	 91.9762
3898.3295	 91.9706
3898.7954	 91.9647
3899.2613	 91.9586
3899.7272	 91.9524
3900.1931	 91.9464
3900.6590	 91.9406
3901.1250	 91.9353
3901.5909	 91.9306
3902.0568	 91.9265
3902.5227	 91.9233
3902.9886	 91.9211
3903.4546	 91.9198
3903.9205	 91.9194
3904.3864	 91.9200
3904.8523	 91.9215
3905.3182	 91.9238
3905.7841	 91.9269
3906.2501	 91.9304
3906.7160	 91.9344
3907.1819	 91.9386
3907.6478	 91.9428
3908.1137	 91.9469
3908.5796	 91.9508
3909.0456	 91.9542
3909.5115	 91.9571
3909.9774	 91.9592
3910.4433	 91.9606
3910.9092	 91.9611
3911.3751	 91.9606
3911.8411	 91.9592
3912.3070	 91.9568
3912.7729	 91.9535
3913.2388	 91.9493
3913.7047	 91.9442
3914.1706	 91.9385
3914.6366	 91.9322
3915.1025	 91.9254
3915.5684	 91.9184
3916.0343	 91.9112
3916.5002	 91.9042
3916.9661	 91.8973
3917.4321	 91.8909
3917.8980	 91.8852
3918.3639	 91.8801
3918.8298	 91.8760
3919.2957	 91.8728
3919.7617	 91.8708
3920.2276	 91.8698
3920.6935	 91.8699
3921.1594	 91.8710
3921.6253	 91.8732
3922.0912	 91.8762
3922.5572	 91.8798
3923.0231	 91.8840
3923.4890	 91.8886
3923.9549	 91.8932
3924.4208	 91.8977
3924.8867	 91.9019
3925.3527	 91.9056
3925.8186	 91.9085
3926.2845	 91.9105
3926.7504	 91.9115
3927.2163	 91.9113
3927.6822	 91.9099
3928.1482	 91.9072
3928.6141	 91.9032
3929.0800	 91.8981
3929.5459	 91.8917
3930.0118	 91.8843
3930.4777	 91.8759
3930.9437	 91.8667
3931.4096	 91.8570
3931.8755	 91.8467
3932.3414	 91.8362
3932.8073	 91.8256
3933.2733	 91.8151
3933.7392	 91.8049
3934.2051	 91.7951
3934.6710	 91.7858
3935.1369	 91.7772
3935.6028	 91.7694
3936.0688	 91.7624
3936.5347	 91.7562
3937.0006	 91.7510
3937.4665	 91.7466
3937.9324	 91.7431
3938.3983	 91.7403
3938.8643	 91.7382
3939.3302	 91.7368
3939.7961	 91.7359
3940.2620	 91.7355
3940.7279	 91.7354
3941.1938	 91.7356
3941.6598	 91.7360
3942.1257	 91.7364
3942.5916	 91.7370
3943.0575	 91.7376
3943.5234	 91.7382
3943.9893	 91.7388
3944.4553	 91.7394
3944.9212	 91.7402
3945.3871	 91.7410
3945.8530	 91.7420
3946.3189	 91.7432
3946.7849	 91.7447
3947.2508	 91.7466
3947.7167	 91.7489
3948.1826	 91.7516
3948.6485	 91.7549
3949.1144	 91.7587
3949.5804	 91.7629
3950.0463	 91.7676
3950.5122	 91.7728
3950.9781	 91.7783
3951.4440	 91.7841
3951.9099	 91.7900
3952.3759	 91.7960
3952.8418	 91.8018
3953.3077	 91.8074
3953.7736	 91.8127
3954.2395	 91.8174
3954.7054	 91.8214
3955.1714	 91.8247
3955.6373	 91.8271
3956.1032	 91.8285
3956.5691	 91.8289
3957.0350	 91.8282
3957.5009	 91.8265
3957.9669	 91.8238
3958.4328	 91.8201
3958.8987	 91.8155
3959.3646	 91.8101
3959.8305	 91.8041
3960.2965	 91.7975
3960.7624	 91.7906
3961.2283	 91.7835
3961.6942	 91.7764
3962.1601	 91.7695
3962.6260	 91.7629
3963.0920	 91.7568
3963.5579	 91.7513
3964.0238	 91.7467
3964.4897	 91.7429
3964.9556	 91.7400
3965.4215	 91.7380
3965.8875	 91.7370
3966.3534	 91.7370
3966.8193	 91.7378
3967.2852	 91.7394
3967.7511	 91.7417
3968.2170	 91.7445
3968.6830	 91.7477
3969.1489	 91.7510
3969.6148	 91.7545
3970.0807	 91.7578
3970.5466	 91.7608
3971.0125	 91.7634
3971.4785	 91.7655
3971.9444	 91.7668
3972.4103	 91.7675
3972.8762	 91.7673
3973.3421	 91.7663
3973.8081	 91.7645
3974.2740	 91.7619
3974.7399	 91.7585
3975.2058	 91.7545
3975.6717	 91.7500
3976.1376	 91.7450
3976.6036	 91.7397
3977.0695	 91.7343
3977.5354	 91.7289
3978.0013	 91.7235
3978.4672	 91.7185
3978.9331	 91.7138
3979.3991	 91.7095
3979.8650	 91.7058
3980.3309	 91.7027
3980.7968	 91.7002
3981.2627	 91.6984
3981.7286	 91.6972
3982.1946	 91.6965
3982.6605	 91.6963
3983.1264	 91.6965
3983.5923	 91.6971
3984.0582	 91.6978
3984.5241	 91.6987
3984.9901	 91.6995
3985.4560	 91.7003
3985.9219	 91.7008
3986.3878	 91.7011
3986.8537	 91.7009
3987.3197	 91.7004
3987.7856	 91.6995
3988.2515	 91.6982
3988.7174	 91.6964
3989.1833	 91.6943
3989.6492	 91.6919
3990.1152	 91.6893
3990.5811	 91.6867
3991.0470	 91.6840
3991.5129	 91.6814
3991.9788	 91.6791
3992.4447	 91.6771
3992.9107	 91.6756
3993.3766	 91.6747
3993.8425	 91.6744
3994.3084	 91.6748
3994.7743	 91.6759
3995.2402	 91.6778
3995.7062	 91.6804
3996.1721	 91.6837
3996.6380	 91.6876
3997.1039	 91.6920
3997.5698	 91.6968
3998.0357	 91.7020
3998.5017	 91.7073
3998.9676	 91.7126
3999.4335	 91.7178
3999.8994	 91.7228
