DATATYPE	 IR Spectrum
XYUNITS	 Wavenumber;PercentTransmittance
DECIMALSYMBOL	 .
400.2229	 80.7964
400.6888	 81.2332
401.1547	 81.6641
401.6207	 82.0710
402.0866	 82.4416
402.5525	 82.7679
403.0184	 83.0459
403.4843	 83.2741
403.9502	 83.4529
404.4162	 83.5841
404.8821	 83.6704
405.3480	 83.7150
405.8139	 83.7214
406.2798	 83.6938
406.7457	 83.6363
407.2117	 83.5535
407.6776	 83.4503
408.1435	 83.3319
408.6094	 83.2041
409.0753	 83.0726
409.5412	 82.9437
410.0072	 82.8237
410.4731	 82.7189
410.9390	 82.6351
411.4049	 82.5775
411.8708	 82.5503
412.3367	 82.5562
412.8027	 82.5961
413.2686	 82.6692
413.7345	 82.7725
414.2004	 82.9013
414.6663	 83.0492
415.1323	 83.2089
415.5982	 83.3722
416.0641	 83.5309
416.5300	 83.6774
416.9959	 83.8045
417.4618	 83.9065
417.9278	 83.9789
418.3937	 84.0185
418.8596	 84.0237
419.3255	 83.9942
419.7914	 83.9308
420.2573	 83.8356
420.7233	 83.7119
421.1892	 83.5635
421.6551	 83.3953
422.1210	 83.2126
422.5869	 83.0210
423.0528	 82.8266
423.5188	 82.6355
423.9847	 82.4535
424.4506	 82.2861
424.9165	 82.1382
425.3824	 82.0140
425.8483	 81.9167
426.3143	 81.8484
426.7802	 81.8103
427.2461	 81.8021
427.7120	 81.8229
428.1779	 81.8704
428.6439	 81.9420
429.1098	 82.0339
429.5757	 82.1424
430.0416	 82.2631
430.5075	 82.3918
430.9734	 82.5242
431.4394	 82.6564
431.9053	 82.7846
432.3712	 82.9055
432.8371	 83.0163
433.3030	 83.1145
433.7689	 83.1982
434.2349	 83.2661
434.7008	 83.3173
435.1667	 83.3514
435.6326	 83.3685
436.0985	 83.3693
436.5644	 83.3547
437.0304	 83.3262
437.4963	 83.2857
437.9622	 83.2354
438.4281	 83.1777
438.8940	 83.1154
439.3599	 83.0510
439.8259	 82.9875
440.2918	 82.9274
440.7577	 82.8732
441.2236	 82.8269
441.6895	 82.7902
442.1555	 82.7642
442.6214	 82.7497
443.0873	 82.7467
443.5532	 82.7548
444.0191	 82.7731
444.4850	 82.8001
444.9510	 82.8343
445.4169	 82.8736
445.8828	 82.9160
446.3487	 82.9594
446.8146	 83.0018
447.2805	 83.0410
447.7465	 83.0753
448.2124	 83.1032
448.6783	 83.1235
449.1442	 83.1351
449.6101	 83.1374
450.0760	 83.1302
450.5420	 83.1135
451.0079	 83.0877
451.4738	 83.0536
451.9397	 83.0124
452.4056	 82.9653
452.8715	 82.9141
453.3375	 82.8606
453.8034	 82.8069
454.2693	 82.7552
454.7352	 82.7075
455.2011	 82.6661
455.6671	 82.6327
456.1330	 82.6091
456.5989	 82.5967
457.0648	 82.5964
457.5307	 82.6087
457.9966	 82.6337
458.4626	 82.6710
458.9285	 82.7197
459.3944	 82.7786
459.8603	 82.8460
460.3262	 82.9202
460.7921	 82.9992
461.2581	 83.0808
461.7240	 83.1631
462.1899	 83.2439
462.6558	 83.3215
463.1217	 83.3941
463.5876	 83.4605
464.0536	 83.5194
464.5195	 83.5699
464.9854	 83.6115
465.4513	 83.6440
465.9172	 83.6673
466.3831	 83.6818
466.8491	 83.6881
467.3150	 83.6869
467.7809	 83.6795
468.2468	 83.6669
468.7127	 83.6507
469.1787	 83.6322
469.6446	 83.6130
470.1105	 83.5945
470.5764	 83.5784
471.0423	 83.5657
471.5082	 83.5578
471.9742	 83.5554
472.4401	 83.5592
472.9060	 83.5696
473.3719	 83.5866
473.8378	 83.6099
474.3037	 83.6390
474.7697	 83.6733
475.2356	 83.7116
475.7015	 83.7530
476.1674	 83.7962
476.6333	 83.8399
477.0992	 83.8831
477.5652	 83.9244
478.0311	 83.9629
478.4970	 83.9977
478.9629	 84.0279
479.4288	 84.0530
479.8947	 84.0728
480.3607	 84.0868
480.8266	 84.0954
481.2925	 84.0985
481.7584	 84.0968
482.2243	 84.0907
482.6902	 84.0809
483.1562	 84.0685
483.6221	 84.0542
484.0880	 84.0392
484.5539	 84.0243
485.0198	 84.0107
485.4858	 83.9992
485.9517	 83.9908
486.4176	 83.9860
486.8835	 83.9856
487.3494	 83.9898
487.8153	 83.9989
488.2813	 84.0128
488.7472	 84.0313
489.2131	 84.0540
489.6790	 84.0804
490.1449	 84.1098
490.6108	 84.1413
491.0768	 84.1741
491.5427	 84.2073
492.0086	 84.2400
492.4745	 84.2712
492.9404	 84.3003
493.4063	 84.3265
493.8723	 84.3492
494.3382	 84.3679
494.8041	 84.3822
495.2700	 84.3921
495.7359	 84.3975
496.2018	 84.3984
496.6678	 84.3952
497.1337	 84.3883
497.5996	 84.3781
498.0655	 84.3652
498.5314	 84.3504
498.9974	 84.3343
499.4633	 84.3178
499.9292	 84.3016
500.3951	 84.2863
500.8610	 84.2727
501.3269	 84.2612
501.7929	 84.2523
502.2588	 84.2462
502.7247	 84.2432
503.1906	 84.2432
503.6565	 84.2459
504.1224	 84.2512
504.5884	 84.2586
505.0543	 84.2676
505.5202	 84.2774
505.9861	 84.2876
506.4520	 84.2974
506.9179	 84.3062
507.3839	 84.3133
507.8498	 84.3182
508.3157	 84.3205
508.7816	 84.3198
509.2475	 84.3159
509.7134	 84.3085
510.1794	 84.2979
510.6453	 84.2841
511.1112	 84.2674
511.5771	 84.2483
512.0430	 84.2271
512.5090	 84.2045
512.9749	 84.1813
513.4408	 84.1579
513.9067	 84.1353
514.3726	 84.1140
514.8385	 84.0949
515.3045	 84.0784
515.7704	 84.0651
516.2363	 84.0554
516.7022	 84.0495
517.1681	 84.0476
517.6340	 84.0495
518.1000	 84.0550
518.5659	 84.0637
519.0318	 84.0750
519.4977	 84.0883
519.9636	 84.1027
520.4295	 84.1175
520.8955	 84.1317
521.3614	 84.1444
521.8273	 84.1548
522.2932	 84.1621
522.7591	 84.1656
523.2250	 84.1648
523.6910	 84.1592
524.1569	 84.1485
524.6228	 84.1327
525.0887	 84.1118
525.5546	 84.0861
526.0206	 84.0559
526.4865	 84.0219
526.9524	 83.9846
527.4183	 83.9449
527.8842	 83.9037
528.3501	 83.8618
528.8161	 83.8203
529.2820	 83.7802
529.7479	 83.7424
530.2138	 83.7077
530.6797	 83.6770
531.1456	 83.6509
531.6116	 83.6299
532.0775	 83.6144
532.5434	 83.6046
533.0093	 83.6005
533.4752	 83.6018
533.9411	 83.6083
534.4071	 83.6195
534.8730	 83.6348
535.3389	 83.6533
535.8048	 83.6743
536.2707	 83.6969
536.7366	 83.7202
537.2026	 83.7433
537.6685	 83.7653
538.1344	 83.7855
538.6003	 83.8032
539.0662	 83.8177
539.5322	 83.8285
539.9981	 83.8353
540.4640	 83.8378
540.9299	 83.8361
541.3958	 83.8301
541.8617	 83.8200
542.3277	 83.8063
542.7936	 83.7893
543.2595	 83.7695
543.7254	 83.7478
544.1913	 83.7246
544.6572	 83.7008
545.1232	 83.6770
545.5891	 83.6540
546.0550	 83.6324
546.5209	 83.6128
546.9868	 83.5958
547.4527	 83.5815
547.9187	 83.5705
548.3846	 83.5627
548.8505	 83.5582
549.3164	 83.5569
549.7823	 83.5587
550.2482	 83.5631
550.7142	 83.5699
551.1801	 83.5787
551.6460	 83.5890
552.1119	 83.6003
552.5778	 83.6122
553.0438	 83.6245
553.5097	 83.6366
553.9756	 83.6485
554.4415	 83.6598
554.9074	 83.6705
555.3733	 83.6807
555.8393	 83.6903
556.3052	 83.6997
556.7711	 83.7090
557.2370	 83.7185
557.7029	 83.7288
558.1688	 83.7402
558.6348	 83.7531
559.1007	 83.7680
559.5666	 83.7853
560.0325	 83.8054
560.4984	 83.8288
560.9643	 83.8555
561.4303	 83.8858
561.8962	 83.9199
562.3621	 83.9575
562.8280	 83.9987
563.2939	 84.0431
563.7598	 84.0905
564.2258	 84.1404
564.6917	 84.1922
565.1576	 84.2456
565.6235	 84.2998
566.0894	 84.3543
566.5554	 84.4084
567.0213	 84.4617
567.4872	 84.5135
567.9531	 84.5635
568.4190	 84.6111
568.8849	 84.6561
569.3509	 84.6984
569.8168	 84.7376
570.2827	 84.7738
570.7486	 84.8071
571.2145	 84.8375
571.6804	 84.8653
572.1464	 84.8908
572.6123	 84.9142
573.0782	 84.9359
573.5441	 84.9563
574.0100	 84.9758
574.4759	 84.9947
574.9419	 85.0134
575.4078	 85.0322
575.8737	 85.0513
576.3396	 85.0708
576.8055	 85.0908
577.2714	 85.1114
577.7374	 85.1325
578.2033	 85.1539
578.6692	 85.1753
579.1351	 85.1966
579.6010	 85.2174
580.0670	 85.2372
580.5329	 85.2558
580.9988	 85.2728
581.4647	 85.2877
581.9306	 85.3002
582.3965	 85.3100
582.8625	 85.3170
583.3284	 85.3208
583.7943	 85.3214
584.2602	 85.3188
584.7261	 85.3130
585.1920	 85.3042
585.6580	 85.2925
586.1239	 85.2782
586.5898	 85.2618
587.0557	 85.2436
587.5216	 85.2241
587.9875	 85.2037
588.4535	 85.1830
588.9194	 85.1625
589.3853	 85.1427
589.8512	 85.1241
590.3171	 85.1070
590.7830	 85.0918
591.2490	 85.0789
591.7149	 85.0683
592.1808	 85.0603
592.6467	 85.0547
593.1126	 85.0516
593.5786	 85.0507
594.0445	 85.0518
594.5104	 85.0545
594.9763	 85.0584
595.4422	 85.0630
595.9081	 85.0679
596.3741	 85.0725
596.8400	 85.0762
597.3059	 85.0786
597.7718	 85.0792
598.2377	 85.0774
598.7036	 85.0728
599.1696	 85.0651
599.6355	 85.0540
600.1014	 85.0392
600.5673	 85.0205
601.0332	 84.9978
601.4991	 84.9711
601.9651	 84.9405
602.4310	 84.9060
602.8969	 84.8677
603.3628	 84.8259
603.8287	 84.7808
604.2946	 84.7328
604.7606	 84.6820
605.2265	 84.6288
605.6924	 84.5736
606.1583	 84.5166
606.6242	 84.4582
607.0902	 84.3988
607.5561	 84.3385
608.0220	 84.2777
608.4879	 84.2166
608.9538	 84.1555
609.4197	 84.0946
609.8857	 84.0340
610.3516	 83.9740
610.8175	 83.9148
611.2834	 83.8565
611.7493	 83.7993
612.2152	 83.7435
612.6812	 83.6891
613.1471	 83.6365
613.6130	 83.5860
614.0789	 83.5377
614.5448	 83.4920
615.0107	 83.4491
615.4767	 83.4096
615.9426	 83.3736
616.4085	 83.3415
616.8744	 83.3137
617.3403	 83.2905
617.8062	 83.2722
618.2722	 83.2590
618.7381	 83.2512
619.2040	 83.2490
619.6699	 83.2523
620.1358	 83.2612
620.6017	 83.2756
621.0677	 83.2954
621.5336	 83.3203
621.9995	 83.3500
622.4654	 83.3840
622.9313	 83.4220
623.3973	 83.4633
623.8632	 83.5074
624.3291	 83.5538
624.7950	 83.6018
625.2609	 83.6508
625.7268	 83.7003
626.1928	 83.7498
626.6587	 83.7987
627.1246	 83.8468
627.5905	 83.8936
628.0564	 83.9390
628.5223	 83.9827
628.9883	 84.0248
629.4542	 84.0654
629.9201	 84.1045
630.3860	 84.1424
630.8519	 84.1794
631.3178	 84.2159
631.7838	 84.2523
632.2497	 84.2892
632.7156	 84.3269
633.1815	 84.3662
633.6474	 84.4073
634.1133	 84.4509
634.5793	 84.4974
635.0452	 84.5471
635.5111	 84.6004
635.9770	 84.6576
636.4429	 84.7187
636.9089	 84.7838
637.3748	 84.8529
637.8407	 84.9258
638.3066	 85.0024
638.7725	 85.0821
639.2384	 85.1647
639.7044	 85.2497
640.1703	 85.3366
640.6362	 85.4247
641.1021	 85.5134
641.5680	 85.6022
642.0339	 85.6905
642.4999	 85.7776
642.9658	 85.8630
643.4317	 85.9462
643.8976	 86.0267
644.3635	 86.1041
644.8294	 86.1782
645.2954	 86.2485
645.7613	 86.3150
646.2272	 86.3776
646.6931	 86.4362
647.1590	 86.4909
647.6249	 86.5419
648.0909	 86.5892
648.5568	 86.6331
649.0227	 86.6739
649.4886	 86.7120
649.9545	 86.7475
650.4205	 86.7809
650.8864	 86.8125
651.3523	 86.8426
651.8182	 86.8714
652.2841	 86.8993
652.7500	 86.9265
653.2160	 86.9530
653.6819	 86.9792
654.1478	 87.0051
654.6137	 87.0307
655.0796	 87.0562
655.5455	 87.0813
656.0115	 87.1063
656.4774	 87.1309
656.9433	 87.1551
657.4092	 87.1789
657.8751	 87.2020
658.3410	 87.2246
658.8070	 87.2464
659.2729	 87.2674
659.7388	 87.2876
660.2047	 87.3069
660.6706	 87.3254
661.1365	 87.3429
661.6025	 87.3596
662.0684	 87.3755
662.5343	 87.3907
663.0002	 87.4052
663.4661	 87.4193
663.9321	 87.4330
664.3980	 87.4465
664.8639	 87.4598
665.3298	 87.4732
665.7957	 87.4867
666.2616	 87.5005
666.7276	 87.5145
667.1935	 87.5289
667.6594	 87.5437
668.1253	 87.5587
668.5912	 87.5741
669.0571	 87.5898
669.5231	 87.6055
669.9890	 87.6212
670.4549	 87.6368
670.9208	 87.6521
671.3867	 87.6669
671.8526	 87.6812
672.3186	 87.6947
672.7845	 87.7075
673.2504	 87.7193
673.7163	 87.7301
674.1822	 87.7399
674.6481	 87.7486
675.1141	 87.7562
675.5800	 87.7628
676.0459	 87.7684
676.5118	 87.7731
676.9777	 87.7770
677.4437	 87.7801
677.9096	 87.7826
678.3755	 87.7845
678.8414	 87.7860
679.3073	 87.7872
679.7732	 87.7882
680.2392	 87.7891
680.7051	 87.7899
681.1710	 87.7908
681.6369	 87.7917
682.1028	 87.7928
682.5687	 87.7939
683.0347	 87.7951
683.5006	 87.7964
683.9665	 87.7977
684.4324	 87.7990
684.8983	 87.8001
685.3642	 87.8010
685.8302	 87.8017
686.2961	 87.8020
686.7620	 87.8018
687.2279	 87.8011
687.6938	 87.7999
688.1597	 87.7980
688.6257	 87.7956
689.0916	 87.7925
689.5575	 87.7889
690.0234	 87.7847
690.4893	 87.7802
690.9553	 87.7753
691.4212	 87.7702
691.8871	 87.7649
692.3530	 87.7598
692.8189	 87.7548
693.2848	 87.7502
693.7508	 87.7460
694.2167	 87.7424
694.6826	 87.7395
695.1485	 87.7374
695.6144	 87.7362
696.0803	 87.7359
696.5463	 87.7365
697.0122	 87.7380
697.4781	 87.7403
697.9440	 87.7435
698.4099	 87.7473
698.8758	 87.7517
699.3418	 87.7565
699.8077	 87.7616
700.2736	 87.7668
700.7395	 87.7719
701.2054	 87.7767
701.6713	 87.7812
702.1373	 87.7851
702.6032	 87.7883
703.0691	 87.7907
703.5350	 87.7922
704.0009	 87.7927
704.4669	 87.7922
704.9328	 87.7906
705.3987	 87.7879
705.8646	 87.7843
706.3305	 87.7797
706.7964	 87.7742
707.2624	 87.7679
707.7283	 87.7609
708.1942	 87.7533
708.6601	 87.7453
709.1260	 87.7370
709.5919	 87.7284
710.0579	 87.7197
710.5238	 87.7109
710.9897	 87.7022
711.4556	 87.6934
711.9215	 87.6848
712.3874	 87.6762
712.8534	 87.6677
713.3193	 87.6592
713.7852	 87.6506
714.2511	 87.6418
714.7170	 87.6328
715.1829	 87.6234
715.6489	 87.6135
716.1148	 87.6031
716.5807	 87.5919
717.0466	 87.5800
717.5125	 87.5672
717.9785	 87.5535
718.4444	 87.5388
718.9103	 87.5231
719.3762	 87.5064
719.8421	 87.4888
720.3080	 87.4702
720.7740	 87.4509
721.2399	 87.4309
721.7058	 87.4102
722.1717	 87.3891
722.6376	 87.3677
723.1035	 87.3462
723.5695	 87.3246
724.0354	 87.3032
724.5013	 87.2821
724.9672	 87.2614
725.4331	 87.2412
725.8990	 87.2215
726.3650	 87.2026
726.8309	 87.1843
727.2968	 87.1667
727.7627	 87.1497
728.2286	 87.1334
728.6945	 87.1176
729.1605	 87.1023
729.6264	 87.0873
730.0923	 87.0726
730.5582	 87.0580
731.0241	 87.0434
731.4901	 87.0287
731.9560	 87.0139
732.4219	 86.9989
732.8878	 86.9835
733.3537	 86.9678
733.8196	 86.9519
734.2856	 86.9356
734.7515	 86.9191
735.2174	 86.9026
735.6833	 86.8860
736.1492	 86.8697
736.6151	 86.8536
737.0811	 86.8382
737.5470	 86.8234
738.0129	 86.8096
738.4788	 86.7970
738.9447	 86.7858
739.4106	 86.7761
739.8766	 86.7681
740.3425	 86.7620
740.8084	 86.7578
741.2743	 86.7557
741.7402	 86.7557
742.2061	 86.7577
742.6721	 86.7617
743.1380	 86.7676
743.6039	 86.7753
744.0698	 86.7846
744.5357	 86.7953
745.0017	 86.8073
745.4676	 86.8201
745.9335	 86.8337
746.3994	 86.8478
746.8653	 86.8620
747.3312	 86.8762
747.7972	 86.8902
748.2631	 86.9037
748.7290	 86.9165
749.1949	 86.9285
749.6608	 86.9397
750.1267	 86.9498
750.5927	 86.9588
751.0586	 86.9668
751.5245	 86.9737
751.9904	 86.9795
752.4563	 86.9844
752.9222	 86.9884
753.3882	 86.9915
753.8541	 86.9939
754.3200	 86.9956
754.7859	 86.9969
755.2518	 86.9976
755.7177	 86.9980
756.1837	 86.9981
756.6496	 86.9979
757.1155	 86.9974
757.5814	 86.9967
758.0473	 86.9956
758.5132	 86.9943
758.9792	 86.9925
759.4451	 86.9902
759.9110	 86.9872
760.3769	 86.9836
760.8428	 86.9791
761.3088	 86.9737
761.7747	 86.9672
762.2406	 86.9596
762.7065	 86.9507
763.1724	 86.9406
763.6383	 86.9290
764.1043	 86.9161
764.5702	 86.9019
765.0361	 86.8863
765.5020	 86.8694
765.9679	 86.8514
766.4338	 86.8323
766.8998	 86.8123
767.3657	 86.7915
767.8316	 86.7701
768.2975	 86.7483
768.7634	 86.7262
769.2293	 86.7041
769.6953	 86.6821
770.1612	 86.6603
770.6271	 86.6389
771.0930	 86.6180
771.5589	 86.5977
772.0248	 86.5780
772.4908	 86.5591
772.9567	 86.5408
773.4226	 86.5233
773.8885	 86.5063
774.3544	 86.4899
774.8204	 86.4739
775.2863	 86.4582
775.7522	 86.4426
776.2181	 86.4271
776.6840	 86.4115
777.1499	 86.3956
777.6159	 86.3793
778.0818	 86.3625
778.5477	 86.3450
779.0136	 86.3267
779.4795	 86.3077
779.9454	 86.2878
780.4114	 86.2669
780.8773	 86.2453
781.3432	 86.2227
781.8091	 86.1993
782.2750	 86.1752
782.7409	 86.1504
783.2069	 86.1251
783.6728	 86.0993
784.1387	 86.0732
784.6046	 86.0468
785.0705	 86.0204
785.5364	 85.9939
786.0024	 85.9676
786.4683	 85.9414
786.9342	 85.9155
787.4001	 85.8899
787.8660	 85.8646
788.3320	 85.8396
788.7979	 85.8150
789.2638	 85.7906
789.7297	 85.7665
790.1956	 85.7426
790.6615	 85.7188
791.1275	 85.6950
791.5934	 85.6712
792.0593	 85.6472
792.5252	 85.6231
792.9911	 85.5987
793.4570	 85.5739
793.9230	 85.5488
794.3889	 85.5232
794.8548	 85.4971
795.3207	 85.4706
795.7866	 85.4435
796.2525	 85.4160
796.7185	 85.3880
797.1844	 85.3596
797.6503	 85.3308
798.1162	 85.3016
798.5821	 85.2721
799.0480	 85.2423
799.5140	 85.2122
799.9799	 85.1819
800.4458	 85.1513
800.9117	 85.1206
801.3776	 85.0896
801.8436	 85.0585
802.3095	 85.0272
802.7754	 84.9956
803.2413	 84.9638
803.7072	 84.9318
804.1731	 84.8995
804.6391	 84.8670
805.1050	 84.8343
805.5709	 84.8015
806.0368	 84.7686
806.5027	 84.7358
806.9686	 84.7031
807.4346	 84.6707
807.9005	 84.6389
808.3664	 84.6078
808.8323	 84.5778
809.2982	 84.5491
809.7641	 84.5222
810.2301	 84.4973
810.6960	 84.4749
811.1619	 84.4554
811.6278	 84.4392
812.0937	 84.4267
812.5596	 84.4183
813.0256	 84.4144
813.4915	 84.4154
813.9574	 84.4216
814.4233	 84.4332
814.8892	 84.4507
815.3552	 84.4740
815.8211	 84.5033
816.2870	 84.5386
816.7529	 84.5800
817.2188	 84.6273
817.6847	 84.6804
818.1507	 84.7390
818.6166	 84.8028
819.0825	 84.8715
819.5484	 84.9447
820.0143	 85.0219
820.4802	 85.1026
820.9462	 85.1865
821.4121	 85.2728
821.8780	 85.3612
822.3439	 85.4512
822.8098	 85.5421
823.2757	 85.6336
823.7417	 85.7252
824.2076	 85.8163
824.6735	 85.9067
825.1394	 85.9959
825.6053	 86.0837
826.0712	 86.1695
826.5372	 86.2533
827.0031	 86.3347
827.4690	 86.4134
827.9349	 86.4894
828.4008	 86.5623
828.8668	 86.6320
829.3327	 86.6983
829.7986	 86.7611
830.2645	 86.8202
830.7304	 86.8755
831.1963	 86.9268
831.6623	 86.9739
832.1282	 87.0168
832.5941	 87.0553
833.0600	 87.0891
833.5259	 87.1183
833.9918	 87.1426
834.4578	 87.1620
834.9237	 87.1763
835.3896	 87.1854
835.8555	 87.1893
836.3214	 87.1879
836.7873	 87.1812
837.2533	 87.1693
837.7192	 87.1521
838.1851	 87.1299
838.6510	 87.1026
839.1169	 87.0706
839.5828	 87.0340
840.0488	 86.9932
840.5147	 86.9483
840.9806	 86.8999
841.4465	 86.8482
841.9124	 86.7937
842.3784	 86.7370
842.8443	 86.6784
843.3102	 86.6186
843.7761	 86.5580
844.2420	 86.4971
844.7079	 86.4365
845.1739	 86.3768
845.6398	 86.3184
846.1057	 86.2619
846.5716	 86.2076
847.0375	 86.1561
847.5034	 86.1078
847.9694	 86.0629
848.4353	 86.0219
848.9012	 85.9850
849.3671	 85.9524
849.8330	 85.9244
850.2989	 85.9010
850.7649	 85.8825
851.2308	 85.8689
851.6967	 85.8602
852.1626	 85.8565
852.6285	 85.8577
853.0944	 85.8639
853.5604	 85.8751
854.0263	 85.8910
854.4922	 85.9117
854.9581	 85.9372
855.4240	 85.9671
855.8900	 86.0016
856.3559	 86.0404
856.8218	 86.0833
857.2877	 86.1303
857.7536	 86.1812
858.2195	 86.2357
858.6855	 86.2936
859.1514	 86.3548
859.6173	 86.4189
860.0832	 86.4857
860.5491	 86.5549
861.0150	 86.6262
861.4810	 86.6993
861.9469	 86.7739
862.4128	 86.8496
862.8787	 86.9261
863.3446	 87.0030
863.8105	 87.0800
864.2765	 87.1568
864.7424	 87.2331
865.2083	 87.3086
865.6742	 87.3830
866.1401	 87.4561
866.6060	 87.5277
867.0720	 87.5976
867.5379	 87.6656
868.0038	 87.7318
868.4697	 87.7959
868.9356	 87.8580
869.4016	 87.9181
869.8675	 87.9761
870.3334	 88.0323
870.7993	 88.0866
871.2652	 88.1391
871.7311	 88.1900
872.1971	 88.2394
872.6630	 88.2874
873.1289	 88.3342
873.5948	 88.3800
874.0607	 88.4248
874.5266	 88.4687
874.9926	 88.5120
875.4585	 88.5545
875.9244	 88.5965
876.3903	 88.6380
876.8562	 88.6790
877.3221	 88.7194
877.7881	 88.7594
878.2540	 88.7987
878.7199	 88.8375
879.1858	 88.8756
879.6517	 88.9129
880.1176	 88.9494
880.5836	 88.9850
881.0495	 89.0196
881.5154	 89.0531
881.9813	 89.0854
882.4472	 89.1165
882.9132	 89.1464
883.3791	 89.1749
883.8450	 89.2020
884.3109	 89.2279
884.7768	 89.2523
885.2427	 89.2755
885.7087	 89.2974
886.1746	 89.3181
886.6405	 89.3376
887.1064	 89.3560
887.5723	 89.3734
888.0382	 89.3899
888.5042	 89.4055
888.9701	 89.4204
889.4360	 89.4345
889.9019	 89.4479
890.3678	 89.4608
890.8337	 89.4731
891.2997	 89.4848
891.7656	 89.4959
892.2315	 89.5065
892.6974	 89.5164
893.1633	 89.5257
893.6292	 89.5343
894.0952	 89.5421
894.5611	 89.5490
895.0270	 89.5550
895.4929	 89.5599
895.9588	 89.5636
896.4247	 89.5661
896.8907	 89.5672
897.3566	 89.5668
897.8225	 89.5649
898.2884	 89.5613
898.7543	 89.5560
899.2203	 89.5490
899.6862	 89.5401
900.1521	 89.5294
900.6180	 89.5169
901.0839	 89.5024
901.5498	 89.4861
902.0158	 89.4679
902.4817	 89.4479
902.9476	 89.4262
903.4135	 89.4026
903.8794	 89.3774
904.3453	 89.3505
904.8113	 89.3221
905.2772	 89.2921
905.7431	 89.2607
906.2090	 89.2279
906.6749	 89.1937
907.1408	 89.1583
907.6068	 89.1216
908.0727	 89.0838
908.5386	 89.0449
909.0045	 89.0050
909.4704	 88.9642
909.9363	 88.9225
910.4023	 88.8799
910.8682	 88.8367
911.3341	 88.7928
911.8000	 88.7484
912.2659	 88.7036
912.7319	 88.6585
913.1978	 88.6133
913.6637	 88.5680
914.1296	 88.5229
914.5955	 88.4781
915.0614	 88.4337
915.5274	 88.3900
915.9933	 88.3470
916.4592	 88.3050
916.9251	 88.2642
917.3910	 88.2246
917.8569	 88.1864
918.3229	 88.1498
918.7888	 88.1149
919.2547	 88.0817
919.7206	 88.0504
920.1865	 88.0209
920.6524	 87.9933
921.1184	 87.9676
921.5843	 87.9437
922.0502	 87.9216
922.5161	 87.9012
922.9820	 87.8823
923.4479	 87.8650
923.9139	 87.8489
924.3798	 87.8340
924.8457	 87.8201
925.3116	 87.8070
925.7775	 87.7946
926.2435	 87.7827
926.7094	 87.7710
927.1753	 87.7596
927.6412	 87.7482
928.1071	 87.7368
928.5730	 87.7252
929.0390	 87.7133
929.5049	 87.7012
929.9708	 87.6887
930.4367	 87.6759
930.9026	 87.6628
931.3685	 87.6493
931.8345	 87.6355
932.3004	 87.6214
932.7663	 87.6072
933.2322	 87.5928
933.6981	 87.5783
934.1640	 87.5637
934.6300	 87.5492
935.0959	 87.5347
935.5618	 87.5202
936.0277	 87.5059
936.4936	 87.4915
936.9595	 87.4773
937.4255	 87.4630
937.8914	 87.4486
938.3573	 87.4341
938.8232	 87.4193
939.2891	 87.4042
939.7551	 87.3886
940.2210	 87.3723
940.6869	 87.3553
941.1528	 87.3374
941.6187	 87.3184
942.0846	 87.2981
942.5506	 87.2765
943.0165	 87.2534
943.4824	 87.2286
943.9483	 87.2021
944.4142	 87.1737
944.8801	 87.1433
945.3461	 87.1109
945.8120	 87.0763
946.2779	 87.0397
946.7438	 87.0009
947.2097	 86.9599
947.6756	 86.9168
948.1416	 86.8716
948.6075	 86.8244
949.0734	 86.7751
949.5393	 86.7240
950.0052	 86.6710
950.4711	 86.6163
950.9371	 86.5601
951.4030	 86.5024
951.8689	 86.4434
952.3348	 86.3833
952.8007	 86.3222
953.2667	 86.2603
953.7326	 86.1978
954.1985	 86.1348
954.6644	 86.0716
955.1303	 86.0083
955.5962	 85.9452
956.0622	 85.8826
956.5281	 85.8205
956.9940	 85.7593
957.4599	 85.6992
957.9258	 85.6405
958.3917	 85.5833
958.8577	 85.5280
959.3236	 85.4748
959.7895	 85.4240
960.2554	 85.3756
960.7213	 85.3301
961.1872	 85.2876
961.6532	 85.2482
962.1191	 85.2121
962.5850	 85.1795
963.0509	 85.1505
963.5168	 85.1251
963.9827	 85.1034
964.4487	 85.0854
964.9146	 85.0709
965.3805	 85.0600
965.8464	 85.0525
966.3123	 85.0482
966.7783	 85.0469
967.2442	 85.0485
967.7101	 85.0525
968.1760	 85.0588
968.6419	 85.0669
969.1078	 85.0766
969.5738	 85.0876
970.0397	 85.0994
970.5056	 85.1116
970.9715	 85.1241
971.4374	 85.1363
971.9033	 85.1479
972.3693	 85.1587
972.8352	 85.1682
973.3011	 85.1763
973.7670	 85.1827
974.2329	 85.1871
974.6988	 85.1892
975.1648	 85.1890
975.6307	 85.1863
976.0966	 85.1808
976.5625	 85.1724
977.0284	 85.1612
977.4943	 85.1468
977.9603	 85.1294
978.4262	 85.1087
978.8921	 85.0848
979.3580	 85.0576
979.8239	 85.0270
980.2899	 84.9931
980.7558	 84.9557
981.2217	 84.9149
981.6876	 84.8706
982.1535	 84.8229
982.6194	 84.7716
983.0854	 84.7169
983.5513	 84.6586
984.0172	 84.5969
984.4831	 84.5317
984.9490	 84.4631
985.4149	 84.3910
985.8809	 84.3157
986.3468	 84.2371
986.8127	 84.1554
987.2786	 84.0706
987.7445	 83.9829
988.2104	 83.8925
988.6764	 83.7995
989.1423	 83.7041
989.6082	 83.6065
990.0741	 83.5069
990.5400	 83.4054
991.0059	 83.3024
991.4719	 83.1981
991.9378	 83.0925
992.4037	 82.9860
992.8696	 82.8787
993.3355	 82.7708
993.8015	 82.6625
994.2674	 82.5538
994.7333	 82.4448
995.1992	 82.3357
995.6651	 82.2265
996.1310	 82.1172
996.5970	 82.0077
997.0629	 81.8980
997.5288	 81.7881
997.9947	 81.6778
998.4606	 81.5670
998.9265	 81.4556
999.3925	 81.3435
999.8584	 81.2305
1000.3243	 81.1164
1000.7902	 81.0011
1001.2561	 80.8845
1001.7220	 80.7663
1002.1880	 80.6466
1002.6539	 80.5252
1003.1198	 80.4020
1003.5857	 80.2770
1004.0516	 80.1500
1004.5175	 80.0211
1004.9835	 79.8903
1005.4494	 79.7575
1005.9153	 79.6228
1006.3812	 79.4862
1006.8471	 79.3477
1007.3131	 79.2074
1007.7790	 79.0652
1008.2449	 78.9211
1008.7108	 78.7752
1009.1767	 78.6274
1009.6426	 78.4777
1010.1086	 78.3260
1010.5745	 78.1723
1011.0404	 78.0165
1011.5063	 77.8584
1011.9722	 77.6979
1012.4381	 77.5350
1012.9041	 77.3695
1013.3700	 77.2013
1013.8359	 77.0303
1014.3018	 76.8565
1014.7677	 76.6799
1015.2336	 76.5005
1015.6996	 76.3184
1016.1655	 76.1338
1016.6314	 75.9470
1017.0973	 75.7582
1017.5632	 75.5678
1018.0291	 75.3765
1018.4951	 75.1849
1018.9610	 74.9936
1019.4269	 74.8034
1019.8928	 74.6154
1020.3587	 74.4304
1020.8247	 74.2496
1021.2906	 74.0740
1021.7565	 73.9048
1022.2224	 73.7434
1022.6883	 73.5907
1023.1542	 73.4482
1023.6202	 73.3170
1024.0861	 73.1982
1024.5520	 73.0929
1025.0179	 73.0022
1025.4838	 72.9268
1025.9497	 72.8677
1026.4157	 72.8255
1026.8816	 72.8006
1027.3475	 72.7934
1027.8134	 72.8042
1028.2793	 72.8329
1028.7452	 72.8795
1029.2112	 72.9437
1029.6771	 73.0250
1030.1430	 73.1228
1030.6089	 73.2364
1031.0748	 73.3650
1031.5407	 73.5075
1032.0067	 73.6630
1032.4726	 73.8302
1032.9385	 74.0079
1033.4044	 74.1949
1033.8703	 74.3898
1034.3362	 74.5912
1034.8022	 74.7978
1035.2681	 75.0082
1035.7340	 75.2211
1036.1999	 75.4351
1036.6658	 75.6491
1037.1318	 75.8617
1037.5977	 76.0719
1038.0636	 76.2786
1038.5295	 76.4808
1038.9954	 76.6777
1039.4613	 76.8684
1039.9273	 77.0525
1040.3932	 77.2292
1040.8591	 77.3982
1041.3250	 77.5591
1041.7909	 77.7118
1042.2568	 77.8561
1042.7228	 77.9921
1043.1887	 78.1199
1043.6546	 78.2396
1044.1205	 78.3516
1044.5864	 78.4562
1045.0523	 78.5538
1045.5183	 78.6449
1045.9842	 78.7300
1046.4501	 78.8096
1046.9160	 78.8844
1047.3819	 78.9547
1047.8478	 79.0213
1048.3138	 79.0846
1048.7797	 79.1452
1049.2456	 79.2035
1049.7115	 79.2600
1050.1774	 79.3150
1050.6434	 79.3688
1051.1093	 79.4217
1051.5752	 79.4739
1052.0411	 79.5255
1052.5070	 79.5766
1052.9729	 79.6270
1053.4389	 79.6767
1053.9048	 79.7256
1054.3707	 79.7734
1054.8366	 79.8198
1055.3025	 79.8645
1055.7684	 79.9072
1056.2344	 79.9473
1056.7003	 79.9845
1057.1662	 80.0183
1057.6321	 80.0484
1058.0980	 80.0742
1058.5639	 80.0954
1059.0299	 80.1116
1059.4958	 80.1223
1059.9617	 80.1275
1060.4276	 80.1267
1060.8935	 80.1198
1061.3594	 80.1067
1061.8254	 80.0873
1062.2913	 80.0616
1062.7572	 80.0298
1063.2231	 79.9920
1063.6890	 79.9484
1064.1550	 79.8992
1064.6209	 79.8449
1065.0868	 79.7859
1065.5527	 79.7226
1066.0186	 79.6555
1066.4845	 79.5851
1066.9505	 79.5121
1067.4164	 79.4369
1067.8823	 79.3602
1068.3482	 79.2825
1068.8141	 79.2045
1069.2800	 79.1267
1069.7460	 79.0496
1070.2119	 78.9738
1070.6778	 78.8997
1071.1437	 78.8278
1071.6096	 78.7584
1072.0755	 78.6920
1072.5415	 78.6287
1073.0074	 78.5690
1073.4733	 78.5129
1073.9392	 78.4607
1074.4051	 78.4125
1074.8710	 78.3685
1075.3370	 78.3286
1075.8029	 78.2930
1076.2688	 78.2616
1076.7347	 78.2346
1077.2006	 78.2119
1077.6666	 78.1934
1078.1325	 78.1792
1078.5984	 78.1693
1079.0643	 78.1636
1079.5302	 78.1620
1079.9961	 78.1647
1080.4621	 78.1714
1080.9280	 78.1822
1081.3939	 78.1970
1081.8598	 78.2156
1082.3257	 78.2382
1082.7916	 78.2644
1083.2576	 78.2942
1083.7235	 78.3274
1084.1894	 78.3638
1084.6553	 78.4033
1085.1212	 78.4456
1085.5871	 78.4904
1086.0531	 78.5375
1086.5190	 78.5865
1086.9849	 78.6372
1087.4508	 78.6891
1087.9167	 78.7419
1088.3826	 78.7953
1088.8486	 78.8489
1089.3145	 78.9023
1089.7804	 78.9552
1090.2463	 79.0072
1090.7122	 79.0579
1091.1782	 79.1070
1091.6441	 79.1543
1092.1100	 79.1995
1092.5759	 79.2422
1093.0418	 79.2823
1093.5077	 79.3196
1093.9737	 79.3538
1094.4396	 79.3849
1094.9055	 79.4128
1095.3714	 79.4372
1095.8373	 79.4581
1096.3032	 79.4755
1096.7692	 79.4893
1097.2351	 79.4994
1097.7010	 79.5058
1098.1669	 79.5084
1098.6328	 79.5071
1099.0987	 79.5019
1099.5647	 79.4927
1100.0306	 79.4794
1100.4965	 79.4619
1100.9624	 79.4401
1101.4283	 79.4138
1101.8942	 79.3828
1102.3602	 79.3471
1102.8261	 79.3063
1103.2920	 79.2605
1103.7579	 79.2092
1104.2238	 79.1525
1104.6898	 79.0901
1105.1557	 79.0218
1105.6216	 78.9476
1106.0875	 78.8673
1106.5534	 78.7809
1107.0193	 78.6884
1107.4853	 78.5898
1107.9512	 78.4851
1108.4171	 78.3746
1108.8830	 78.2583
1109.3489	 78.1366
1109.8148	 78.0099
1110.2808	 77.8784
1110.7467	 77.7426
1111.2126	 77.6032
1111.6785	 77.4606
1112.1444	 77.3154
1112.6103	 77.1685
1113.0763	 77.0204
1113.5422	 76.8720
1114.0081	 76.7240
1114.4740	 76.5772
1114.9399	 76.4325
1115.4058	 76.2906
1115.8718	 76.1523
1116.3377	 76.0184
1116.8036	 75.8896
1117.2695	 75.7665
1117.7354	 75.6499
1118.2014	 75.5402
1118.6673	 75.4380
1119.1332	 75.3437
1119.5991	 75.2577
1120.0650	 75.1802
1120.5309	 75.1116
1120.9969	 75.0518
1121.4628	 75.0010
1121.9287	 74.9591
1122.3946	 74.9261
1122.8605	 74.9017
1123.3264	 74.8858
1123.7924	 74.8779
1124.2583	 74.8779
1124.7242	 74.8852
1125.1901	 74.8994
1125.6560	 74.9200
1126.1219	 74.9464
1126.5879	 74.9781
1127.0538	 75.0145
1127.5197	 75.0550
1127.9856	 75.0988
1128.4515	 75.1456
1128.9174	 75.1945
1129.3834	 75.2451
1129.8493	 75.2967
1130.3152	 75.3489
1130.7811	 75.4010
1131.2470	 75.4527
1131.7130	 75.5035
1132.1789	 75.5531
1132.6448	 75.6010
1133.1107	 75.6472
1133.5766	 75.6913
1134.0425	 75.7333
1134.5085	 75.7731
1134.9744	 75.8106
1135.4403	 75.8459
1135.9062	 75.8790
1136.3721	 75.9102
1136.8380	 75.9396
1137.3040	 75.9675
1137.7699	 75.9941
1138.2358	 76.0196
1138.7017	 76.0445
1139.1676	 76.0690
1139.6335	 76.0934
1140.0995	 76.1182
1140.5654	 76.1436
1141.0313	 76.1699
1141.4972	 76.1975
1141.9631	 76.2266
1142.4290	 76.2576
1142.8950	 76.2905
1143.3609	 76.3257
1143.8268	 76.3633
1144.2927	 76.4035
1144.7586	 76.4464
1145.2246	 76.4920
1145.6905	 76.5406
1146.1564	 76.5920
1146.6223	 76.6465
1147.0882	 76.7039
1147.5541	 76.7644
1148.0201	 76.8280
1148.4860	 76.8946
1148.9519	 76.9644
1149.4178	 77.0374
1149.8837	 77.1136
1150.3496	 77.1930
1150.8156	 77.2758
1151.2815	 77.3621
1151.7474	 77.4518
1152.2133	 77.5452
1152.6792	 77.6422
1153.1451	 77.7430
1153.6111	 77.8477
1154.0770	 77.9562
1154.5429	 78.0687
1155.0088	 78.1851
1155.4747	 78.3054
1155.9406	 78.4295
1156.4066	 78.5573
1156.8725	 78.6886
1157.3384	 78.8232
1157.8043	 78.9608
1158.2702	 79.1010
1158.7362	 79.2435
1159.2021	 79.3878
1159.6680	 79.5334
1160.1339	 79.6797
1160.5998	 79.8262
1161.0657	 79.9723
1161.5317	 80.1172
1161.9976	 80.2603
1162.4635	 80.4010
1162.9294	 80.5385
1163.3953	 80.6723
1163.8612	 80.8016
1164.3272	 80.9259
1164.7931	 81.0445
1165.2590	 81.1570
1165.7249	 81.2627
1166.1908	 81.3614
1166.6567	 81.4526
1167.1227	 81.5359
1167.5886	 81.6112
1168.0545	 81.6781
1168.5204	 81.7366
1168.9863	 81.7865
1169.4522	 81.8279
1169.9182	 81.8608
1170.3841	 81.8852
1170.8500	 81.9013
1171.3159	 81.9092
1171.7818	 81.9092
1172.2477	 81.9015
1172.7137	 81.8863
1173.1796	 81.8641
1173.6455	 81.8351
1174.1114	 81.7996
1174.5773	 81.7581
1175.0433	 81.7109
1175.5092	 81.6583
1175.9751	 81.6007
1176.4410	 81.5387
1176.9069	 81.4724
1177.3728	 81.4023
1177.8388	 81.3287
1178.3047	 81.2521
1178.7706	 81.1728
1179.2365	 81.0911
1179.7024	 81.0074
1180.1683	 80.9220
1180.6343	 80.8352
1181.1002	 80.7473
1181.5661	 80.6588
1182.0320	 80.5697
1182.4979	 80.4804
1182.9638	 80.3911
1183.4298	 80.3021
1183.8957	 80.2136
1184.3616	 80.1257
1184.8275	 80.0385
1185.2934	 79.9523
1185.7593	 79.8671
1186.2253	 79.7829
1186.6912	 79.6999
1187.1571	 79.6178
1187.6230	 79.5368
1188.0889	 79.4567
1188.5549	 79.3775
1189.0208	 79.2989
1189.4867	 79.2207
1189.9526	 79.1429
1190.4185	 79.0651
1190.8844	 78.9871
1191.3504	 78.9086
1191.8163	 78.8295
1192.2822	 78.7495
1192.7481	 78.6682
1193.2140	 78.5856
1193.6799	 78.5014
1194.1459	 78.4155
1194.6118	 78.3277
1195.0777	 78.2379
1195.5436	 78.1462
1196.0095	 78.0525
1196.4754	 77.9568
1196.9414	 77.8594
1197.4073	 77.7604
1197.8732	 77.6600
1198.3391	 77.5584
1198.8050	 77.4562
1199.2709	 77.3535
1199.7369	 77.2508
1200.2028	 77.1485
1200.6687	 77.0471
1201.1346	 76.9471
1201.6005	 76.8490
1202.0665	 76.7532
1202.5324	 76.6602
1202.9983	 76.5704
1203.4642	 76.4843
1203.9301	 76.4023
1204.3960	 76.3248
1204.8620	 76.2520
1205.3279	 76.1841
1205.7938	 76.1216
1206.2597	 76.0644
1206.7256	 76.0128
1207.1915	 75.9668
1207.6575	 75.9265
1208.1234	 75.8918
1208.5893	 75.8627
1209.0552	 75.8391
1209.5211	 75.8208
1209.9870	 75.8079
1210.4530	 75.8001
1210.9189	 75.7972
1211.3848	 75.7990
1211.8507	 75.8055
1212.3166	 75.8164
1212.7825	 75.8315
1213.2485	 75.8507
1213.7144	 75.8738
1214.1803	 75.9006
1214.6462	 75.9309
1215.1121	 75.9647
1215.5781	 76.0017
1216.0440	 76.0419
1216.5099	 76.0850
1216.9758	 76.1310
1217.4417	 76.1797
1217.9076	 76.2309
1218.3736	 76.2845
1218.8395	 76.3403
1219.3054	 76.3982
1219.7713	 76.4580
1220.2372	 76.5195
1220.7031	 76.5826
1221.1691	 76.6470
1221.6350	 76.7126
1222.1009	 76.7792
1222.5668	 76.8466
1223.0327	 76.9145
1223.4986	 76.9830
1223.9646	 77.0517
1224.4305	 77.1205
1224.8964	 77.1893
1225.3623	 77.2580
1225.8282	 77.3264
1226.2941	 77.3944
1226.7601	 77.4620
1227.2260	 77.5291
1227.6919	 77.5956
1228.1578	 77.6616
1228.6237	 77.7269
1229.0897	 77.7915
1229.5556	 77.8555
1230.0215	 77.9187
1230.4874	 77.9811
1230.9533	 78.0428
1231.4192	 78.1036
1231.8852	 78.1634
1232.3511	 78.2222
1232.8170	 78.2799
1233.2829	 78.3364
1233.7488	 78.3914
1234.2147	 78.4447
1234.6807	 78.4963
1235.1466	 78.5458
1235.6125	 78.5930
1236.0784	 78.6376
1236.5443	 78.6793
1237.0102	 78.7179
1237.4762	 78.7530
1237.9421	 78.7844
1238.4080	 78.8117
1238.8739	 78.8346
1239.3398	 78.8529
1239.8057	 78.8663
1240.2717	 78.8745
1240.7376	 78.8774
1241.2035	 78.8747
1241.6694	 78.8663
1242.1353	 78.8522
1242.6013	 78.8322
1243.0672	 78.8063
1243.5331	 78.7745
1243.9990	 78.7369
1244.4649	 78.6935
1244.9308	 78.6445
1245.3968	 78.5901
1245.8627	 78.5304
1246.3286	 78.4657
1246.7945	 78.3962
1247.2604	 78.3223
1247.7263	 78.2442
1248.1923	 78.1623
1248.6582	 78.0769
1249.1241	 77.9883
1249.5900	 77.8969
1250.0559	 77.8032
1250.5218	 77.7074
1250.9878	 77.6100
1251.4537	 77.5114
1251.9196	 77.4118
1252.3855	 77.3118
1252.8514	 77.2118
1253.3173	 77.1120
1253.7833	 77.0130
1254.2492	 76.9151
1254.7151	 76.8188
1255.1810	 76.7244
1255.6469	 76.6324
1256.1129	 76.5432
1256.5788	 76.4573
1257.0447	 76.3752
1257.5106	 76.2972
1257.9765	 76.2238
1258.4424	 76.1554
1258.9084	 76.0927
1259.3743	 76.0358
1259.8402	 75.9854
1260.3061	 75.9417
1260.7720	 75.9053
1261.2379	 75.8764
1261.7039	 75.8554
1262.1698	 75.8427
1262.6357	 75.8383
1263.1016	 75.8426
1263.5675	 75.8558
1264.0334	 75.8779
1264.4994	 75.9090
1264.9653	 75.9491
1265.4312	 75.9983
1265.8971	 76.0564
1266.3630	 76.1232
1266.8289	 76.1987
1267.2949	 76.2827
1267.7608	 76.3748
1268.2267	 76.4748
1268.6926	 76.5825
1269.1585	 76.6975
1269.6245	 76.8195
1270.0904	 76.9482
1270.5563	 77.0832
1271.0222	 77.2242
1271.4881	 77.3708
1271.9540	 77.5228
1272.4200	 77.6797
1272.8859	 77.8413
1273.3518	 78.0073
1273.8177	 78.1772
1274.2836	 78.3508
1274.7495	 78.5279
1275.2155	 78.7080
1275.6814	 78.8908
1276.1473	 79.0761
1276.6132	 79.2635
1277.0791	 79.4528
1277.5450	 79.6435
1278.0110	 79.8354
1278.4769	 80.0281
1278.9428	 80.2213
1279.4087	 80.4147
1279.8746	 80.6079
1280.3405	 80.8005
1280.8065	 80.9924
1281.2724	 81.1831
1281.7383	 81.3723
1282.2042	 81.5597
1282.6701	 81.7450
1283.1361	 81.9280
1283.6020	 82.1085
1284.0679	 82.2862
1284.5338	 82.4608
1284.9997	 82.6324
1285.4656	 82.8006
1285.9316	 82.9655
1286.3975	 83.1269
1286.8634	 83.2848
1287.3293	 83.4391
1287.7952	 83.5899
1288.2611	 83.7372
1288.7271	 83.8811
1289.1930	 84.0215
1289.6589	 84.1587
1290.1248	 84.2926
1290.5907	 84.4235
1291.0566	 84.5513
1291.5226	 84.6762
1291.9885	 84.7982
1292.4544	 84.9176
1292.9203	 85.0343
1293.3862	 85.1484
1293.8521	 85.2600
1294.3181	 85.3691
1294.7840	 85.4758
1295.2499	 85.5800
1295.7158	 85.6817
1296.1817	 85.7809
1296.6477	 85.8777
1297.1136	 85.9718
1297.5795	 86.0633
1298.0454	 86.1520
1298.5113	 86.2380
1298.9772	 86.3211
1299.4432	 86.4013
1299.9091	 86.4784
1300.3750	 86.5525
1300.8409	 86.6233
1301.3068	 86.6909
1301.7727	 86.7553
1302.2387	 86.8163
1302.7046	 86.8740
1303.1705	 86.9283
1303.6364	 86.9793
1304.1023	 87.0269
1304.5682	 87.0712
1305.0342	 87.1122
1305.5001	 87.1499
1305.9660	 87.1845
1306.4319	 87.2160
1306.8978	 87.2445
1307.3637	 87.2701
1307.8297	 87.2928
1308.2956	 87.3128
1308.7615	 87.3302
1309.2274	 87.3451
1309.6933	 87.3576
1310.1592	 87.3679
1310.6252	 87.3760
1311.0911	 87.3821
1311.5570	 87.3863
1312.0229	 87.3887
1312.4888	 87.3895
1312.9548	 87.3888
1313.4207	 87.3867
1313.8866	 87.3834
1314.3525	 87.3789
1314.8184	 87.3735
1315.2843	 87.3672
1315.7503	 87.3602
1316.2162	 87.3526
1316.6821	 87.3446
1317.1480	 87.3363
1317.6139	 87.3279
1318.0798	 87.3194
1318.5458	 87.3111
1319.0117	 87.3029
1319.4776	 87.2951
1319.9435	 87.2878
1320.4094	 87.2809
1320.8753	 87.2747
1321.3413	 87.2691
1321.8072	 87.2642
1322.2731	 87.2601
1322.7390	 87.2567
1323.2049	 87.2541
1323.6708	 87.2522
1324.1368	 87.2509
1324.6027	 87.2503
1325.0686	 87.2503
1325.5345	 87.2508
1326.0004	 87.2517
1326.4664	 87.2528
1326.9323	 87.2542
1327.3982	 87.2556
1327.8641	 87.2569
1328.3300	 87.2581
1328.7959	 87.2590
1329.2619	 87.2596
1329.7278	 87.2595
1330.1937	 87.2589
1330.6596	 87.2575
1331.1255	 87.2553
1331.5914	 87.2522
1332.0574	 87.2482
1332.5233	 87.2431
1332.9892	 87.2370
1333.4551	 87.2298
1333.9210	 87.2215
1334.3869	 87.2121
1334.8529	 87.2017
1335.3188	 87.1903
1335.7847	 87.1778
1336.2506	 87.1645
1336.7165	 87.1503
1337.1824	 87.1354
1337.6484	 87.1198
1338.1143	 87.1036
1338.5802	 87.0869
1339.0461	 87.0697
1339.5120	 87.0522
1339.9780	 87.0344
1340.4439	 87.0163
1340.9098	 86.9981
1341.3757	 86.9796
1341.8416	 86.9611
1342.3075	 86.9423
1342.7735	 86.9234
1343.2394	 86.9044
1343.7053	 86.8852
1344.1712	 86.8657
1344.6371	 86.8460
1345.1030	 86.8259
1345.5690	 86.8055
1346.0349	 86.7848
1346.5008	 86.7635
1346.9667	 86.7418
1347.4326	 86.7196
1347.8985	 86.6968
1348.3645	 86.6734
1348.8304	 86.6494
1349.2963	 86.6248
1349.7622	 86.5996
1350.2281	 86.5737
1350.6940	 86.5472
1351.1600	 86.5202
1351.6259	 86.4925
1352.0918	 86.4642
1352.5577	 86.4355
1353.0236	 86.4063
1353.4896	 86.3766
1353.9555	 86.3466
1354.4214	 86.3162
1354.8873	 86.2856
1355.3532	 86.2548
1355.8191	 86.2239
1356.2851	 86.1929
1356.7510	 86.1620
1357.2169	 86.1312
1357.6828	 86.1006
1358.1487	 86.0704
1358.6146	 86.0405
1359.0806	 86.0112
1359.5465	 85.9824
1360.0124	 85.9543
1360.4783	 85.9271
1360.9442	 85.9007
1361.4101	 85.8754
1361.8761	 85.8512
1362.3420	 85.8282
1362.8079	 85.8065
1363.2738	 85.7863
1363.7397	 85.7676
1364.2056	 85.7505
1364.6716	 85.7351
1365.1375	 85.7215
1365.6034	 85.7098
1366.0693	 85.7000
1366.5352	 85.6921
1367.0012	 85.6863
1367.4671	 85.6826
1367.9330	 85.6809
1368.3989	 85.6812
1368.8648	 85.6836
1369.3307	 85.6881
1369.7967	 85.6946
1370.2626	 85.7030
1370.7285	 85.7133
1371.1944	 85.7255
1371.6603	 85.7394
1372.1262	 85.7549
1372.5922	 85.7721
1373.0581	 85.7907
1373.5240	 85.8107
1373.9899	 85.8319
1374.4558	 85.8543
1374.9217	 85.8777
1375.3877	 85.9020
1375.8536	 85.9272
1376.3195	 85.9530
1376.7854	 85.9795
1377.2513	 86.0065
1377.7172	 86.0339
1378.1832	 86.0617
1378.6491	 86.0897
1379.1150	 86.1178
1379.5809	 86.1461
1380.0468	 86.1743
1380.5128	 86.2025
1380.9787	 86.2306
1381.4446	 86.2584
1381.9105	 86.2860
1382.3764	 86.3133
1382.8423	 86.3401
1383.3083	 86.3664
1383.7742	 86.3921
1384.2401	 86.4171
1384.7060	 86.4414
1385.1719	 86.4648
1385.6378	 86.4872
1386.1038	 86.5084
1386.5697	 86.5285
1387.0356	 86.5472
1387.5015	 86.5643
1387.9674	 86.5799
1388.4333	 86.5936
1388.8993	 86.6053
1389.3652	 86.6150
1389.8311	 86.6224
1390.2970	 86.6273
1390.7629	 86.6297
1391.2288	 86.6293
1391.6948	 86.6260
1392.1607	 86.6197
1392.6266	 86.6103
1393.0925	 86.5977
1393.5584	 86.5818
1394.0244	 86.5626
1394.4903	 86.5400
1394.9562	 86.5141
1395.4221	 86.4849
1395.8880	 86.4524
1396.3539	 86.4168
1396.8199	 86.3782
1397.2858	 86.3367
1397.7517	 86.2925
1398.2176	 86.2458
1398.6835	 86.1969
1399.1494	 86.1458
1399.6154	 86.0928
1400.0813	 86.0381
1400.5472	 85.9819
1401.0131	 85.9243
1401.4790	 85.8654
1401.9449	 85.8055
1402.4109	 85.7445
1402.8768	 85.6826
1403.3427	 85.6198
1403.8086	 85.5560
1404.2745	 85.4913
1404.7404	 85.4256
1405.2064	 85.3589
1405.6723	 85.2910
1406.1382	 85.2219
1406.6041	 85.1515
1407.0700	 85.0796
1407.5360	 85.0061
1408.0019	 84.9308
1408.4678	 84.8537
1408.9337	 84.7745
1409.3996	 84.6933
1409.8655	 84.6098
1410.3315	 84.5241
1410.7974	 84.4362
1411.2633	 84.3459
1411.7292	 84.2535
1412.1951	 84.1590
1412.6610	 84.0627
1413.1270	 83.9648
1413.5929	 83.8656
1414.0588	 83.7657
1414.5247	 83.6654
1414.9906	 83.5655
1415.4565	 83.4665
1415.9225	 83.3693
1416.3884	 83.2746
1416.8543	 83.1832
1417.3202	 83.0961
1417.7861	 83.0140
1418.2520	 82.9378
1418.7180	 82.8682
1419.1839	 82.8060
1419.6498	 82.7519
1420.1157	 82.7063
1420.5816	 82.6697
1421.0476	 82.6424
1421.5135	 82.6247
1421.9794	 82.6166
1422.4453	 82.6182
1422.9112	 82.6293
1423.3771	 82.6498
1423.8431	 82.6794
1424.3090	 82.7179
1424.7749	 82.7648
1425.2408	 82.8197
1425.7067	 82.8822
1426.1726	 82.9517
1426.6386	 83.0277
1427.1045	 83.1096
1427.5704	 83.1967
1428.0363	 83.2884
1428.5022	 83.3839
1428.9681	 83.4825
1429.4341	 83.5832
1429.9000	 83.6852
1430.3659	 83.7874
1430.8318	 83.8889
1431.2977	 83.9886
1431.7636	 84.0853
1432.2296	 84.1779
1432.6955	 84.2653
1433.1614	 84.3462
1433.6273	 84.4197
1434.0932	 84.4846
1434.5592	 84.5401
1435.0251	 84.5854
1435.4910	 84.6199
1435.9569	 84.6431
1436.4228	 84.6549
1436.8887	 84.6551
1437.3547	 84.6441
1437.8206	 84.6220
1438.2865	 84.5896
1438.7524	 84.5475
1439.2183	 84.4966
1439.6842	 84.4378
1440.1502	 84.3721
1440.6161	 84.3004
1441.0820	 84.2239
1441.5479	 84.1435
1442.0138	 84.0602
1442.4797	 83.9748
1442.9457	 83.8882
1443.4116	 83.8011
1443.8775	 83.7141
1444.3434	 83.6278
1444.8093	 83.5427
1445.2752	 83.4591
1445.7412	 83.3775
1446.2071	 83.2980
1446.6730	 83.2210
1447.1389	 83.1467
1447.6048	 83.0751
1448.0707	 83.0066
1448.5367	 82.9412
1449.0026	 82.8792
1449.4685	 82.8208
1449.9344	 82.7661
1450.4003	 82.7154
1450.8663	 82.6691
1451.3322	 82.6274
1451.7981	 82.5907
1452.2640	 82.5594
1452.7299	 82.5340
1453.1958	 82.5148
1453.6618	 82.5023
1454.1277	 82.4969
1454.5936	 82.4989
1455.0595	 82.5087
1455.5254	 82.5266
1455.9913	 82.5525
1456.4573	 82.5867
1456.9232	 82.6291
1457.3891	 82.6796
1457.8550	 82.7380
1458.3209	 82.8041
1458.7868	 82.8776
1459.2528	 82.9581
1459.7187	 83.0454
1460.1846	 83.1392
1460.6505	 83.2391
1461.1164	 83.3448
1461.5823	 83.4563
1462.0483	 83.5732
1462.5142	 83.6954
1462.9801	 83.8228
1463.4460	 83.9553
1463.9119	 84.0928
1464.3779	 84.2352
1464.8438	 84.3824
1465.3097	 84.5342
1465.7756	 84.6905
1466.2415	 84.8511
1466.7074	 85.0156
1467.1734	 85.1835
1467.6393	 85.3543
1468.1052	 85.5274
1468.5711	 85.7020
1469.0370	 85.8771
1469.5029	 86.0518
1469.9689	 86.2247
1470.4348	 86.3948
1470.9007	 86.5606
1471.3666	 86.7207
1471.8325	 86.8739
1472.2984	 87.0187
1472.7644	 87.1539
1473.2303	 87.2785
1473.6962	 87.3914
1474.1621	 87.4918
1474.6280	 87.5793
1475.0939	 87.6534
1475.5599	 87.7139
1476.0258	 87.7611
1476.4917	 87.7950
1476.9576	 87.8161
1477.4235	 87.8249
1477.8895	 87.8220
1478.3554	 87.8081
1478.8213	 87.7838
1479.2872	 87.7500
1479.7531	 87.7073
1480.2190	 87.6565
1480.6850	 87.5980
1481.1509	 87.5326
1481.6168	 87.4607
1482.0827	 87.3829
1482.5486	 87.2997
1483.0145	 87.2113
1483.4805	 87.1183
1483.9464	 87.0210
1484.4123	 86.9198
1484.8782	 86.8149
1485.3441	 86.7069
1485.8100	 86.5961
1486.2760	 86.4829
1486.7419	 86.3678
1487.2078	 86.2513
1487.6737	 86.1339
1488.1396	 86.0161
1488.6055	 85.8985
1489.0715	 85.7816
1489.5374	 85.6660
1490.0033	 85.5522
1490.4692	 85.4406
1490.9351	 85.3315
1491.4011	 85.2252
1491.8670	 85.1220
1492.3329	 85.0218
1492.7988	 84.9245
1493.2647	 84.8301
1493.7306	 84.7381
1494.1966	 84.6481
1494.6625	 84.5595
1495.1284	 84.4718
1495.5943	 84.3840
1496.0602	 84.2956
1496.5261	 84.2056
1496.9921	 84.1131
1497.4580	 84.0172
1497.9239	 83.9173
1498.3898	 83.8123
1498.8557	 83.7016
1499.3216	 83.5845
1499.7876	 83.4605
1500.2535	 83.3292
1500.7194	 83.1904
1501.1853	 83.0442
1501.6512	 82.8907
1502.1171	 82.7305
1502.5831	 82.5642
1503.0490	 82.3929
1503.5149	 82.2180
1503.9808	 82.0410
1504.4467	 81.8638
1504.9127	 81.6885
1505.3786	 81.5173
1505.8445	 81.3527
1506.3104	 81.1972
1506.7763	 81.0534
1507.2422	 80.9236
1507.7082	 80.8104
1508.1741	 80.7161
1508.6400	 80.6427
1509.1059	 80.5922
1509.5718	 80.5662
1510.0377	 80.5663
1510.5037	 80.5935
1510.9696	 80.6491
1511.4355	 80.7336
1511.9014	 80.8480
1512.3673	 80.9925
1512.8332	 81.1676
1513.2992	 81.3736
1513.7651	 81.6104
1514.2310	 81.8780
1514.6969	 82.1762
1515.1628	 82.5046
1515.6287	 82.8625
1516.0947	 83.2489
1516.5606	 83.6626
1517.0265	 84.1019
1517.4924	 84.5648
1517.9583	 85.0487
1518.4243	 85.5507
1518.8902	 86.0675
1519.3561	 86.5952
1519.8220	 87.1296
1520.2879	 87.6665
1520.7538	 88.2012
1521.2198	 88.7292
1521.6857	 89.2462
1522.1516	 89.7479
1522.6175	 90.2305
1523.0834	 90.6909
1523.5493	 91.1261
1524.0153	 91.5342
1524.4812	 91.9137
1524.9471	 92.2638
1525.4130	 92.5842
1525.8789	 92.8751
1526.3448	 93.1373
1526.8108	 93.3720
1527.2767	 93.5804
1527.7426	 93.7642
1528.2085	 93.9251
1528.6744	 94.0649
1529.1403	 94.1853
1529.6063	 94.2881
1530.0722	 94.3748
1530.5381	 94.4471
1531.0040	 94.5063
1531.4699	 94.5536
1531.9359	 94.5901
1532.4018	 94.6166
1532.8677	 94.6340
1533.3336	 94.6427
1533.7995	 94.6433
1534.2654	 94.6362
1534.7314	 94.6214
1535.1973	 94.5993
1535.6632	 94.5699
1536.1291	 94.5335
1536.5950	 94.4903
1537.0609	 94.4405
1537.5269	 94.3846
1537.9928	 94.3231
1538.4587	 94.2567
1538.9246	 94.1865
1539.3905	 94.1132
1539.8564	 94.0383
1540.3224	 93.9627
1540.7883	 93.8878
1541.2542	 93.8147
1541.7201	 93.7445
1542.1860	 93.6780
1542.6519	 93.6160
1543.1179	 93.5591
1543.5838	 93.5074
1544.0497	 93.4613
1544.5156	 93.4204
1544.9815	 93.3848
1545.4475	 93.3539
1545.9134	 93.3273
1546.3793	 93.3045
1546.8452	 93.2848
1547.3111	 93.2675
1547.7770	 93.2519
1548.2430	 93.2372
1548.7089	 93.2227
1549.1748	 93.2074
1549.6407	 93.1906
1550.1066	 93.1714
1550.5725	 93.1489
1551.0385	 93.1223
1551.5044	 93.0905
1551.9703	 93.0529
1552.4362	 93.0085
1552.9021	 92.9567
1553.3680	 92.8967
1553.8340	 92.8281
1554.2999	 92.7505
1554.7658	 92.6637
1555.2317	 92.5680
1555.6976	 92.4637
1556.1635	 92.3516
1556.6295	 92.2327
1557.0954	 92.1085
1557.5613	 91.9804
1558.0272	 91.8503
1558.4931	 91.7201
1558.9591	 91.5916
1559.4250	 91.4668
1559.8909	 91.3471
1560.3568	 91.2340
1560.8227	 91.1284
1561.2886	 91.0310
1561.7546	 90.9420
1562.2205	 90.8613
1562.6864	 90.7887
1563.1523	 90.7234
1563.6182	 90.6646
1564.0841	 90.6113
1564.5501	 90.5624
1565.0160	 90.5166
1565.4819	 90.4729
1565.9478	 90.4299
1566.4137	 90.3866
1566.8796	 90.3417
1567.3456	 90.2942
1567.8115	 90.2431
1568.2774	 90.1875
1568.7433	 90.1265
1569.2092	 90.0593
1569.6751	 89.9854
1570.1411	 89.9042
1570.6070	 89.8154
1571.0729	 89.7186
1571.5388	 89.6139
1572.0047	 89.5013
1572.4707	 89.3811
1572.9366	 89.2537
1573.4025	 89.1197
1573.8684	 88.9799
1574.3343	 88.8352
1574.8002	 88.6866
1575.2662	 88.5354
1575.7321	 88.3828
1576.1980	 88.2299
1576.6639	 88.0781
1577.1298	 87.9285
1577.5957	 87.7822
1578.0617	 87.6402
1578.5276	 87.5034
1578.9935	 87.3724
1579.4594	 87.2478
1579.9253	 87.1298
1580.3912	 87.0188
1580.8572	 86.9147
1581.3231	 86.8176
1581.7890	 86.7273
1582.2549	 86.6435
1582.7208	 86.5660
1583.1867	 86.4946
1583.6527	 86.4288
1584.1186	 86.3684
1584.5845	 86.3131
1585.0504	 86.2627
1585.5163	 86.2170
1585.9822	 86.1759
1586.4482	 86.1391
1586.9141	 86.1067
1587.3800	 86.0788
1587.8459	 86.0552
1588.3118	 86.0362
1588.7778	 86.0218
1589.2437	 86.0123
1589.7096	 86.0076
1590.1755	 86.0081
1590.6414	 86.0140
1591.1073	 86.0253
1591.5733	 86.0422
1592.0392	 86.0648
1592.5051	 86.0932
1592.9710	 86.1274
1593.4369	 86.1674
1593.9028	 86.2131
1594.3688	 86.2644
1594.8347	 86.3211
1595.3006	 86.3831
1595.7665	 86.4500
1596.2324	 86.5215
1596.6983	 86.5974
1597.1643	 86.6773
1597.6302	 86.7608
1598.0961	 86.8477
1598.5620	 86.9376
1599.0279	 87.0301
1599.4938	 87.1250
1599.9598	 87.2221
1600.4257	 87.3210
1600.8916	 87.4216
1601.3575	 87.5237
1601.8234	 87.6271
1602.2894	 87.7317
1602.7553	 87.8375
1603.2212	 87.9444
1603.6871	 88.0523
1604.1530	 88.1611
1604.6189	 88.2709
1605.0849	 88.3816
1605.5508	 88.4932
1606.0167	 88.6056
1606.4826	 88.7189
1606.9485	 88.8329
1607.4144	 88.9477
1607.8804	 89.0631
1608.3463	 89.1790
1608.8122	 89.2954
1609.2781	 89.4121
1609.7440	 89.5289
1610.2099	 89.6457
1610.6759	 89.7623
1611.1418	 89.8785
1611.6077	 89.9941
1612.0736	 90.1088
1612.5395	 90.2223
1613.0054	 90.3345
1613.4714	 90.4450
1613.9373	 90.5535
1614.4032	 90.6598
1614.8691	 90.7636
1615.3350	 90.8647
1615.8010	 90.9628
1616.2669	 91.0577
1616.7328	 91.1493
1617.1987	 91.2373
1617.6646	 91.3216
1618.1305	 91.4022
1618.5965	 91.4790
1619.0624	 91.5519
1619.5283	 91.6210
1619.9942	 91.6863
1620.4601	 91.7478
1620.9260	 91.8057
1621.3920	 91.8600
1621.8579	 91.9107
1622.3238	 91.9581
1622.7897	 92.0022
1623.2556	 92.0432
1623.7215	 92.0811
1624.1875	 92.1160
1624.6534	 92.1480
1625.1193	 92.1773
1625.5852	 92.2039
1626.0511	 92.2279
1626.5170	 92.2493
1626.9830	 92.2683
1627.4489	 92.2850
1627.9148	 92.2995
1628.3807	 92.3119
1628.8466	 92.3222
1629.3126	 92.3307
1629.7785	 92.3376
1630.2444	 92.3430
1630.7103	 92.3471
1631.1762	 92.3501
1631.6421	 92.3522
1632.1081	 92.3538
1632.5740	 92.3550
1633.0399	 92.3561
1633.5058	 92.3573
1633.9717	 92.3589
1634.4376	 92.3609
1634.9036	 92.3637
1635.3695	 92.3672
1635.8354	 92.3716
1636.3013	 92.3770
1636.7672	 92.3834
1637.2331	 92.3906
1637.6991	 92.3987
1638.1650	 92.4075
1638.6309	 92.4169
1639.0968	 92.4266
1639.5627	 92.4365
1640.0286	 92.4463
1640.4946	 92.4558
1640.9605	 92.4647
1641.4264	 92.4728
1641.8923	 92.4797
1642.3582	 92.4851
1642.8242	 92.4888
1643.2901	 92.4906
1643.7560	 92.4902
1644.2219	 92.4873
1644.6878	 92.4817
1645.1537	 92.4735
1645.6197	 92.4623
1646.0856	 92.4483
1646.5515	 92.4315
1647.0174	 92.4120
1647.4833	 92.3901
1647.9492	 92.3660
1648.4152	 92.3403
1648.8811	 92.3135
1649.3470	 92.2861
1649.8129	 92.2588
1650.2788	 92.2323
1650.7447	 92.2073
1651.2107	 92.1844
1651.6766	 92.1642
1652.1425	 92.1472
1652.6084	 92.1337
1653.0743	 92.1240
1653.5402	 92.1182
1654.0062	 92.1164
1654.4721	 92.1182
1654.9380	 92.1237
1655.4039	 92.1324
1655.8698	 92.1441
1656.3358	 92.1583
1656.8017	 92.1747
1657.2676	 92.1929
1657.7335	 92.2125
1658.1994	 92.2332
1658.6653	 92.2547
1659.1313	 92.2767
1659.5972	 92.2989
1660.0631	 92.3211
1660.5290	 92.3431
1660.9949	 92.3647
1661.4608	 92.3859
1661.9268	 92.4064
1662.3927	 92.4263
1662.8586	 92.4454
1663.3245	 92.4637
1663.7904	 92.4812
1664.2563	 92.4977
1664.7223	 92.5134
1665.1882	 92.5282
1665.6541	 92.5421
1666.1200	 92.5551
1666.5859	 92.5672
1667.0518	 92.5784
1667.5178	 92.5889
1667.9837	 92.5985
1668.4496	 92.6072
1668.9155	 92.6152
1669.3814	 92.6225
1669.8474	 92.6290
1670.3133	 92.6347
1670.7792	 92.6397
1671.2451	 92.6441
1671.7110	 92.6477
1672.1769	 92.6507
1672.6429	 92.6531
1673.1088	 92.6549
1673.5747	 92.6561
1674.0406	 92.6568
1674.5065	 92.6570
1674.9724	 92.6569
1675.4384	 92.6565
1675.9043	 92.6558
1676.3702	 92.6551
1676.8361	 92.6544
1677.3020	 92.6538
1677.7679	 92.6535
1678.2339	 92.6537
1678.6998	 92.6545
1679.1657	 92.6560
1679.6316	 92.6584
1680.0975	 92.6617
1680.5634	 92.6663
1681.0294	 92.6720
1681.4953	 92.6790
1681.9612	 92.6874
1682.4271	 92.6972
1682.8930	 92.7083
1683.3590	 92.7208
1683.8249	 92.7345
1684.2908	 92.7495
1684.7567	 92.7655
1685.2226	 92.7825
1685.6885	 92.8002
1686.1545	 92.8187
1686.6204	 92.8376
1687.0863	 92.8569
1687.5522	 92.8764
1688.0181	 92.8959
1688.4840	 92.9152
1688.9500	 92.9343
1689.4159	 92.9530
1689.8818	 92.9712
1690.3477	 92.9888
1690.8136	 93.0058
1691.2795	 93.0219
1691.7455	 93.0373
1692.2114	 93.0518
1692.6773	 93.0656
1693.1432	 93.0786
1693.6091	 93.0908
1694.0750	 93.1024
1694.5410	 93.1135
1695.0069	 93.1242
1695.4728	 93.1347
1695.9387	 93.1451
1696.4046	 93.1558
1696.8706	 93.1669
1697.3365	 93.1787
1697.8024	 93.1913
1698.2683	 93.2051
1698.7342	 93.2201
1699.2001	 93.2366
1699.6661	 93.2547
1700.1320	 93.2745
1700.5979	 93.2959
1701.0638	 93.3191
1701.5297	 93.3438
1701.9956	 93.3701
1702.4616	 93.3978
1702.9275	 93.4267
1703.3934	 93.4568
1703.8593	 93.4878
1704.3252	 93.5197
1704.7911	 93.5522
1705.2571	 93.5852
1705.7230	 93.6187
1706.1889	 93.6524
1706.6548	 93.6862
1707.1207	 93.7201
1707.5866	 93.7541
1708.0526	 93.7879
1708.5185	 93.8216
1708.9844	 93.8550
1709.4503	 93.8882
1709.9162	 93.9210
1710.3822	 93.9535
1710.8481	 93.9855
1711.3140	 94.0171
1711.7799	 94.0481
1712.2458	 94.0785
1712.7117	 94.1084
1713.1777	 94.1375
1713.6436	 94.1661
1714.1095	 94.1939
1714.5754	 94.2210
1715.0413	 94.2475
1715.5072	 94.2733
1715.9732	 94.2985
1716.4391	 94.3232
1716.9050	 94.3473
1717.3709	 94.3711
1717.8368	 94.3945
1718.3027	 94.4177
1718.7687	 94.4408
1719.2346	 94.4639
1719.7005	 94.4870
1720.1664	 94.5102
1720.6323	 94.5336
1721.0982	 94.5573
1721.5642	 94.5813
1722.0301	 94.6055
1722.4960	 94.6301
1722.9619	 94.6550
1723.4278	 94.6802
1723.8937	 94.7056
1724.3597	 94.7312
1724.8256	 94.7569
1725.2915	 94.7826
1725.7574	 94.8083
1726.2233	 94.8339
1726.6893	 94.8592
1727.1552	 94.8842
1727.6211	 94.9087
1728.0870	 94.9326
1728.5529	 94.9559
1729.0188	 94.9784
1729.4848	 95.0000
1729.9507	 95.0207
1730.4166	 95.0404
1730.8825	 95.0590
1731.3484	 95.0765
1731.8143	 95.0930
1732.2803	 95.1084
1732.7462	 95.1228
1733.2121	 95.1364
1733.6780	 95.1492
1734.1439	 95.1613
1734.6098	 95.1731
1735.0758	 95.1845
1735.5417	 95.1959
1736.0076	 95.2073
1736.4735	 95.2189
1736.9394	 95.2310
1737.4053	 95.2435
1737.8713	 95.2567
1738.3372	 95.2704
1738.8031	 95.2848
1739.2690	 95.2999
1739.7349	 95.3155
1740.2009	 95.3316
1740.6668	 95.3481
1741.1327	 95.3649
1741.5986	 95.3818
1742.0645	 95.3985
1742.5304	 95.4151
1742.9964	 95.4312
1743.4623	 95.4468
1743.9282	 95.4615
1744.3941	 95.4754
1744.8600	 95.4881
1745.3259	 95.4997
1745.7919	 95.5100
1746.2578	 95.5189
1746.7237	 95.5264
1747.1896	 95.5325
1747.6555	 95.5371
1748.1214	 95.5405
1748.5874	 95.5425
1749.0533	 95.5435
1749.5192	 95.5435
1749.9851	 95.5427
1750.4510	 95.5413
1750.9169	 95.5395
1751.3829	 95.5376
1751.8488	 95.5358
1752.3147	 95.5342
1752.7806	 95.5331
1753.2465	 95.5327
1753.7125	 95.5330
1754.1784	 95.5343
1754.6443	 95.5366
1755.1102	 95.5399
1755.5761	 95.5443
1756.0420	 95.5497
1756.5080	 95.5561
1756.9739	 95.5634
1757.4398	 95.5715
1757.9057	 95.5803
1758.3716	 95.5897
1758.8375	 95.5995
1759.3035	 95.6096
1759.7694	 95.6197
1760.2353	 95.6298
1760.7012	 95.6398
1761.1671	 95.6494
1761.6330	 95.6586
1762.0990	 95.6673
1762.5649	 95.6753
1763.0308	 95.6827
1763.4967	 95.6892
1763.9626	 95.6949
1764.4285	 95.6999
1764.8945	 95.7040
1765.3604	 95.7073
1765.8263	 95.7099
1766.2922	 95.7118
1766.7581	 95.7130
1767.2241	 95.7138
1767.6900	 95.7143
1768.1559	 95.7144
1768.6218	 95.7145
1769.0877	 95.7145
1769.5536	 95.7147
1770.0196	 95.7151
1770.4855	 95.7159
1770.9514	 95.7171
1771.4173	 95.7190
1771.8832	 95.7214
1772.3491	 95.7245
1772.8151	 95.7284
1773.2810	 95.7329
1773.7469	 95.7382
1774.2128	 95.7442
1774.6787	 95.7508
1775.1446	 95.7581
1775.6106	 95.7659
1776.0765	 95.7742
1776.5424	 95.7830
1777.0083	 95.7923
1777.4742	 95.8019
1777.9401	 95.8118
1778.4061	 95.8220
1778.8720	 95.8325
1779.3379	 95.8432
1779.8038	 95.8540
1780.2697	 95.8650
1780.7357	 95.8762
1781.2016	 95.8874
1781.6675	 95.8987
1782.1334	 95.9099
1782.5993	 95.9212
1783.0652	 95.9324
1783.5312	 95.9435
1783.9971	 95.9543
1784.4630	 95.9650
1784.9289	 95.9752
1785.3948	 95.9851
1785.8607	 95.9944
1786.3267	 96.0031
1786.7926	 96.0111
1787.2585	 96.0182
1787.7244	 96.0245
1788.1903	 96.0297
1788.6562	 96.0339
1789.1222	 96.0370
1789.5881	 96.0388
1790.0540	 96.0395
1790.5199	 96.0389
1790.9858	 96.0372
1791.4517	 96.0343
1791.9177	 96.0304
1792.3836	 96.0256
1792.8495	 96.0200
1793.3154	 96.0138
1793.7813	 96.0071
1794.2473	 96.0002
1794.7132	 95.9932
1795.1791	 95.9863
1795.6450	 95.9797
1796.1109	 95.9736
1796.5768	 95.9682
1797.0428	 95.9635
1797.5087	 95.9597
1797.9746	 95.9569
1798.4405	 95.9550
1798.9064	 95.9542
1799.3723	 95.9545
1799.8383	 95.9557
1800.3042	 95.9578
1800.7701	 95.9608
1801.2360	 95.9645
1801.7019	 95.9689
1802.1678	 95.9738
1802.6338	 95.9790
1803.0997	 95.9845
1803.5656	 95.9900
1804.0315	 95.9955
1804.4974	 96.0009
1804.9633	 96.0060
1805.4293	 96.0107
1805.8952	 96.0150
1806.3611	 96.0187
1806.8270	 96.0219
1807.2929	 96.0245
1807.7589	 96.0266
1808.2248	 96.0281
1808.6907	 96.0290
1809.1566	 96.0295
1809.6225	 96.0296
1810.0884	 96.0294
1810.5544	 96.0289
1811.0203	 96.0283
1811.4862	 96.0276
1811.9521	 96.0269
1812.4180	 96.0263
1812.8839	 96.0258
1813.3499	 96.0256
1813.8158	 96.0256
1814.2817	 96.0259
1814.7476	 96.0264
1815.2135	 96.0271
1815.6794	 96.0281
1816.1454	 96.0292
1816.6113	 96.0303
1817.0772	 96.0314
1817.5431	 96.0324
1818.0090	 96.0331
1818.4749	 96.0334
1818.9409	 96.0332
1819.4068	 96.0324
1819.8727	 96.0308
1820.3386	 96.0284
1820.8045	 96.0251
1821.2705	 96.0207
1821.7364	 96.0154
1822.2023	 96.0091
1822.6682	 96.0017
1823.1341	 95.9935
1823.6000	 95.9844
1824.0660	 95.9745
1824.5319	 95.9641
1824.9978	 95.9533
1825.4637	 95.9423
1825.9296	 95.9312
1826.3955	 95.9204
1826.8615	 95.9099
1827.3274	 95.9001
1827.7933	 95.8910
1828.2592	 95.8828
1828.7251	 95.8757
1829.1910	 95.8697
1829.6570	 95.8649
1830.1229	 95.8614
1830.5888	 95.8590
1831.0547	 95.8578
1831.5206	 95.8577
1831.9865	 95.8586
1832.4525	 95.8603
1832.9184	 95.8627
1833.3843	 95.8656
1833.8502	 95.8689
1834.3161	 95.8724
1834.7821	 95.8759
1835.2480	 95.8792
1835.7139	 95.8822
1836.1798	 95.8848
1836.6457	 95.8867
1837.1116	 95.8879
1837.5776	 95.8883
1838.0435	 95.8878
1838.5094	 95.8863
1838.9753	 95.8839
1839.4412	 95.8805
1839.9071	 95.8761
1840.3731	 95.8708
1840.8390	 95.8647
1841.3049	 95.8578
1841.7708	 95.8503
1842.2367	 95.8424
1842.7026	 95.8340
1843.1686	 95.8255
1843.6345	 95.8169
1844.1004	 95.8084
1844.5663	 95.8001
1845.0322	 95.7923
1845.4981	 95.7849
1845.9641	 95.7781
1846.4300	 95.7721
1846.8959	 95.7667
1847.3618	 95.7622
1847.8277	 95.7584
1848.2937	 95.7555
1848.7596	 95.7532
1849.2255	 95.7517
1849.6914	 95.7508
1850.1573	 95.7505
1850.6232	 95.7507
1851.0892	 95.7513
1851.5551	 95.7523
1852.0210	 95.7536
1852.4869	 95.7551
1852.9528	 95.7568
1853.4187	 95.7585
1853.8847	 95.7603
1854.3506	 95.7621
1854.8165	 95.7639
1855.2824	 95.7656
1855.7483	 95.7672
1856.2142	 95.7687
1856.6802	 95.7701
1857.1461	 95.7713
1857.6120	 95.7723
1858.0779	 95.7730
1858.5438	 95.7736
1859.0097	 95.7738
1859.4757	 95.7737
1859.9416	 95.7733
1860.4075	 95.7724
1860.8734	 95.7711
1861.3393	 95.7693
1861.8052	 95.7670
1862.2712	 95.7641
1862.7371	 95.7606
1863.2030	 95.7564
1863.6689	 95.7516
1864.1348	 95.7462
1864.6008	 95.7402
1865.0667	 95.7336
1865.5326	 95.7265
1865.9985	 95.7190
1866.4644	 95.7112
1866.9303	 95.7032
1867.3963	 95.6952
1867.8622	 95.6873
1868.3281	 95.6796
1868.7940	 95.6723
1869.2599	 95.6655
1869.7258	 95.6594
1870.1918	 95.6542
1870.6577	 95.6499
1871.1236	 95.6466
1871.5895	 95.6443
1872.0554	 95.6432
1872.5213	 95.6432
1872.9873	 95.6442
1873.4532	 95.6462
1873.9191	 95.6492
1874.3850	 95.6531
1874.8509	 95.6576
1875.3168	 95.6627
1875.7828	 95.6682
1876.2487	 95.6739
1876.7146	 95.6796
1877.1805	 95.6853
1877.6464	 95.6906
1878.1124	 95.6955
1878.5783	 95.6998
1879.0442	 95.7033
1879.5101	 95.7060
1879.9760	 95.7078
1880.4419	 95.7085
1880.9079	 95.7082
1881.3738	 95.7068
1881.8397	 95.7043
1882.3056	 95.7009
1882.7715	 95.6966
1883.2374	 95.6915
1883.7034	 95.6857
1884.1693	 95.6793
1884.6352	 95.6727
1885.1011	 95.6659
1885.5670	 95.6591
1886.0329	 95.6526
1886.4989	 95.6465
1886.9648	 95.6411
1887.4307	 95.6364
1887.8966	 95.6326
1888.3625	 95.6298
1888.8284	 95.6282
1889.2944	 95.6277
1889.7603	 95.6283
1890.2262	 95.6300
1890.6921	 95.6327
1891.1580	 95.6363
1891.6240	 95.6407
1892.0899	 95.6457
1892.5558	 95.6511
1893.0217	 95.6568
1893.4876	 95.6624
1893.9535	 95.6679
1894.4195	 95.6731
1894.8854	 95.6777
1895.3513	 95.6816
1895.8172	 95.6848
1896.2831	 95.6870
1896.7490	 95.6883
1897.2150	 95.6886
1897.6809	 95.6880
1898.1468	 95.6864
1898.6127	 95.6840
1899.0786	 95.6807
1899.5445	 95.6768
1900.0105	 95.6724
1900.4764	 95.6675
1900.9423	 95.6624
1901.4082	 95.6572
1901.8741	 95.6521
1902.3400	 95.6472
1902.8060	 95.6427
1903.2719	 95.6386
1903.7378	 95.6350
1904.2037	 95.6321
1904.6696	 95.6299
1905.1356	 95.6284
1905.6015	 95.6277
1906.0674	 95.6276
1906.5333	 95.6283
1906.9992	 95.6295
1907.4651	 95.6313
1907.9311	 95.6336
1908.3970	 95.6362
1908.8629	 95.6391
1909.3288	 95.6422
1909.7947	 95.6455
1910.2606	 95.6487
1910.7266	 95.6520
1911.1925	 95.6551
1911.6584	 95.6583
1912.1243	 95.6613
1912.5902	 95.6644
1913.0561	 95.6674
1913.5221	 95.6706
1913.9880	 95.6739
1914.4539	 95.6774
1914.9198	 95.6813
1915.3857	 95.6857
1915.8516	 95.6906
1916.3176	 95.6961
1916.7835	 95.7023
1917.2494	 95.7092
1917.7153	 95.7169
1918.1812	 95.7254
1918.6472	 95.7346
1919.1131	 95.7445
1919.5790	 95.7550
1920.0449	 95.7659
1920.5108	 95.7771
1920.9767	 95.7884
1921.4427	 95.7996
1921.9086	 95.8105
1922.3745	 95.8210
1922.8404	 95.8308
1923.3063	 95.8397
1923.7722	 95.8476
1924.2382	 95.8544
1924.7041	 95.8598
1925.1700	 95.8640
1925.6359	 95.8667
1926.1018	 95.8681
1926.5677	 95.8682
1927.0337	 95.8671
1927.4996	 95.8649
1927.9655	 95.8618
1928.4314	 95.8580
1928.8973	 95.8538
1929.3632	 95.8494
1929.8292	 95.8451
1930.2951	 95.8411
1930.7610	 95.8378
1931.2269	 95.8354
1931.6928	 95.8342
1932.1588	 95.8343
1932.6247	 95.8361
1933.0906	 95.8395
1933.5565	 95.8449
1934.0224	 95.8521
1934.4883	 95.8612
1934.9543	 95.8721
1935.4202	 95.8848
1935.8861	 95.8991
1936.3520	 95.9147
1936.8179	 95.9314
1937.2838	 95.9490
1937.7498	 95.9670
1938.2157	 95.9851
1938.6816	 96.0031
1939.1475	 96.0204
1939.6134	 96.0369
1940.0793	 96.0522
1940.5453	 96.0659
1941.0112	 96.0780
1941.4771	 96.0883
1941.9430	 96.0966
1942.4089	 96.1029
1942.8748	 96.1072
1943.3408	 96.1097
1943.8067	 96.1105
1944.2726	 96.1098
1944.7385	 96.1079
1945.2044	 96.1050
1945.6704	 96.1015
1946.1363	 96.0978
1946.6022	 96.0941
1947.0681	 96.0907
1947.5340	 96.0881
1947.9999	 96.0865
1948.4659	 96.0860
1948.9318	 96.0870
1949.3977	 96.0894
1949.8636	 96.0935
1950.3295	 96.0993
1950.7954	 96.1066
1951.2614	 96.1156
1951.7273	 96.1259
1952.1932	 96.1375
1952.6591	 96.1502
1953.1250	 96.1638
1953.5909	 96.1780
1954.0569	 96.1927
1954.5228	 96.2076
1954.9887	 96.2225
1955.4546	 96.2372
1955.9205	 96.2517
1956.3864	 96.2657
1956.8524	 96.2793
1957.3183	 96.2925
1957.7842	 96.3052
1958.2501	 96.3176
1958.7160	 96.3298
1959.1820	 96.3421
1959.6479	 96.3545
1960.1138	 96.3674
1960.5797	 96.3810
1961.0456	 96.3956
1961.5115	 96.4114
1961.9775	 96.4287
1962.4434	 96.4476
1962.9093	 96.4682
1963.3752	 96.4908
1963.8411	 96.5152
1964.3070	 96.5414
1964.7730	 96.5693
1965.2389	 96.5986
1965.7048	 96.6291
1966.1707	 96.6603
1966.6366	 96.6918
1967.1025	 96.7231
1967.5685	 96.7537
1968.0344	 96.7831
1968.5003	 96.8105
1968.9662	 96.8356
1969.4321	 96.8578
1969.8980	 96.8767
1970.3640	 96.8918
1970.8299	 96.9030
1971.2958	 96.9099
1971.7617	 96.9125
1972.2276	 96.9108
1972.6936	 96.9049
1973.1595	 96.8950
1973.6254	 96.8816
1974.0913	 96.8649
1974.5572	 96.8455
1975.0231	 96.8238
1975.4891	 96.8005
1975.9550	 96.7761
1976.4209	 96.7511
1976.8868	 96.7262
1977.3527	 96.7016
1977.8186	 96.6780
1978.2846	 96.6555
1978.7505	 96.6345
1979.2164	 96.6151
1979.6823	 96.5975
1980.1482	 96.5815
1980.6141	 96.5672
1981.0801	 96.5543
1981.5460	 96.5427
1982.0119	 96.5322
1982.4778	 96.5225
1982.9437	 96.5132
1983.4096	 96.5043
1983.8756	 96.4953
1984.3415	 96.4862
1984.8074	 96.4766
1985.2733	 96.4665
1985.7392	 96.4557
1986.2052	 96.4443
1986.6711	 96.4322
1987.1370	 96.4196
1987.6029	 96.4065
1988.0688	 96.3932
1988.5347	 96.3799
1989.0007	 96.3668
1989.4666	 96.3542
1989.9325	 96.3425
1990.3984	 96.3319
1990.8643	 96.3229
1991.3302	 96.3156
1991.7962	 96.3104
1992.2621	 96.3076
1992.7280	 96.3073
1993.1939	 96.3098
1993.6598	 96.3151
1994.1257	 96.3232
1994.5917	 96.3343
1995.0576	 96.3481
1995.5235	 96.3646
1995.9894	 96.3836
1996.4553	 96.4049
1996.9212	 96.4281
1997.3872	 96.4530
1997.8531	 96.4793
1998.3190	 96.5066
1998.7849	 96.5346
1999.2508	 96.5630
1999.7167	 96.5914
2000.1827	 96.6195
2000.6486	 96.6472
2001.1145	 96.6741
2001.5804	 96.7001
2002.0463	 96.7251
2002.5123	 96.7490
2002.9782	 96.7717
2003.4441	 96.7932
2003.9100	 96.8135
2004.3759	 96.8328
2004.8418	 96.8510
2005.3078	 96.8683
2005.7737	 96.8847
2006.2396	 96.9005
2006.7055	 96.9156
2007.1714	 96.9303
2007.6373	 96.9444
2008.1033	 96.9581
2008.5692	 96.9714
2009.0351	 96.9842
2009.5010	 96.9964
2009.9669	 97.0081
2010.4328	 97.0189
2010.8988	 97.0289
2011.3647	 97.0378
2011.8306	 97.0454
2012.2965	 97.0517
2012.7624	 97.0565
2013.2283	 97.0596
2013.6943	 97.0611
2014.1602	 97.0608
2014.6261	 97.0588
2015.0920	 97.0551
2015.5579	 97.0499
2016.0239	 97.0433
2016.4898	 97.0355
2016.9557	 97.0268
2017.4216	 97.0176
2017.8875	 97.0080
2018.3534	 96.9986
2018.8194	 96.9896
2019.2853	 96.9814
2019.7512	 96.9745
2020.2171	 96.9691
2020.6830	 96.9655
2021.1489	 96.9641
2021.6149	 96.9650
2022.0808	 96.9685
2022.5467	 96.9745
2023.0126	 96.9830
2023.4785	 96.9941
2023.9444	 97.0076
2024.4104	 97.0232
2024.8763	 97.0406
2025.3422	 97.0596
2025.8081	 97.0796
2026.2740	 97.1003
2026.7399	 97.1211
2027.2059	 97.1417
2027.6718	 97.1616
2028.1377	 97.1803
2028.6036	 97.1975
2029.0695	 97.2128
2029.5355	 97.2259
2030.0014	 97.2367
2030.4673	 97.2451
2030.9332	 97.2508
2031.3991	 97.2540
2031.8650	 97.2546
2032.3310	 97.2529
2032.7969	 97.2488
2033.2628	 97.2427
2033.7287	 97.2346
2034.1946	 97.2248
2034.6605	 97.2135
2035.1265	 97.2008
2035.5924	 97.1868
2036.0583	 97.1717
2036.5242	 97.1556
2036.9901	 97.1384
2037.4560	 97.1200
2037.9220	 97.1005
2038.3879	 97.0797
2038.8538	 97.0574
2039.3197	 97.0334
2039.7856	 97.0076
2040.2515	 96.9797
2040.7175	 96.9497
2041.1834	 96.9173
2041.6493	 96.8824
2042.1152	 96.8449
2042.5811	 96.8050
2043.0471	 96.7626
2043.5130	 96.7180
2043.9789	 96.6712
2044.4448	 96.6227
2044.9107	 96.5727
2045.3766	 96.5217
2045.8426	 96.4702
2046.3085	 96.4187
2046.7744	 96.3677
2047.2403	 96.3178
2047.7062	 96.2695
2048.1721	 96.2234
2048.6381	 96.1801
2049.1040	 96.1399
2049.5699	 96.1034
2050.0358	 96.0708
2050.5017	 96.0425
2050.9676	 96.0187
2051.4336	 95.9995
2051.8995	 95.9850
2052.3654	 95.9750
2052.8313	 95.9694
2053.2972	 95.9681
2053.7631	 95.9705
2054.2291	 95.9764
2054.6950	 95.9853
2055.1609	 95.9966
2055.6268	 96.0097
2056.0927	 96.0242
2056.5587	 96.0393
2057.0246	 96.0544
2057.4905	 96.0689
2057.9564	 96.0823
2058.4223	 96.0940
2058.8882	 96.1034
2059.3542	 96.1101
2059.8201	 96.1138
2060.2860	 96.1141
2060.7519	 96.1108
2061.2178	 96.1038
2061.6837	 96.0931
2062.1497	 96.0785
2062.6156	 96.0604
2063.0815	 96.0387
2063.5474	 96.0139
2064.0133	 95.9862
2064.4792	 95.9561
2064.9452	 95.9239
2065.4111	 95.8901
2065.8770	 95.8552
2066.3429	 95.8197
2066.8088	 95.7840
2067.2747	 95.7487
2067.7407	 95.7141
2068.2066	 95.6806
2068.6725	 95.6486
2069.1384	 95.6184
2069.6043	 95.5900
2070.0703	 95.5638
2070.5362	 95.5398
2071.0021	 95.5180
2071.4680	 95.4983
2071.9339	 95.4808
2072.3998	 95.4652
2072.8658	 95.4514
2073.3317	 95.4393
2073.7976	 95.4286
2074.2635	 95.4191
2074.7294	 95.4106
2075.1953	 95.4029
2075.6613	 95.3959
2076.1272	 95.3893
2076.5931	 95.3829
2077.0590	 95.3768
2077.5249	 95.3707
2077.9908	 95.3647
2078.4568	 95.3586
2078.9227	 95.3525
2079.3886	 95.3463
2079.8545	 95.3400
2080.3204	 95.3338
2080.7863	 95.3276
2081.2523	 95.3214
2081.7182	 95.3154
2082.1841	 95.3095
2082.6500	 95.3039
2083.1159	 95.2984
2083.5819	 95.2932
2084.0478	 95.2883
2084.5137	 95.2836
2084.9796	 95.2791
2085.4455	 95.2748
2085.9114	 95.2706
2086.3774	 95.2665
2086.8433	 95.2625
2087.3092	 95.2584
2087.7751	 95.2542
2088.2410	 95.2499
2088.7069	 95.2453
2089.1729	 95.2405
2089.6388	 95.2354
2090.1047	 95.2300
2090.5706	 95.2242
2091.0365	 95.2181
2091.5024	 95.2117
2091.9684	 95.2050
2092.4343	 95.1981
2092.9002	 95.1910
2093.3661	 95.1837
2093.8320	 95.1764
2094.2979	 95.1691
2094.7639	 95.1619
2095.2298	 95.1549
2095.6957	 95.1481
2096.1616	 95.1416
2096.6275	 95.1354
2097.0935	 95.1295
2097.5594	 95.1240
2098.0253	 95.1189
2098.4912	 95.1141
2098.9571	 95.1095
2099.4230	 95.1053
2099.8890	 95.1012
2100.3549	 95.0972
2100.8208	 95.0933
2101.2867	 95.0894
2101.7526	 95.0855
2102.2185	 95.0814
2102.6845	 95.0772
2103.1504	 95.0728
2103.6163	 95.0683
2104.0822	 95.0636
2104.5481	 95.0588
2105.0140	 95.0540
2105.4800	 95.0493
2105.9459	 95.0447
2106.4118	 95.0404
2106.8777	 95.0365
2107.3436	 95.0331
2107.8095	 95.0303
2108.2755	 95.0284
2108.7414	 95.0274
2109.2073	 95.0274
2109.6732	 95.0285
2110.1391	 95.0309
2110.6051	 95.0344
2111.0710	 95.0392
2111.5369	 95.0451
2112.0028	 95.0522
2112.4687	 95.0604
2112.9346	 95.0695
2113.4006	 95.0793
2113.8665	 95.0897
2114.3324	 95.1004
2114.7983	 95.1113
2115.2642	 95.1221
2115.7301	 95.1326
2116.1961	 95.1425
2116.6620	 95.1516
2117.1279	 95.1598
2117.5938	 95.1668
2118.0597	 95.1725
2118.5256	 95.1767
2118.9916	 95.1796
2119.4575	 95.1809
2119.9234	 95.1808
2120.3893	 95.1793
2120.8552	 95.1765
2121.3211	 95.1726
2121.7871	 95.1678
2122.2530	 95.1624
2122.7189	 95.1565
2123.1848	 95.1507
2123.6507	 95.1451
2124.1166	 95.1401
2124.5826	 95.1361
2125.0485	 95.1334
2125.5144	 95.1324
2125.9803	 95.1335
2126.4462	 95.1368
2126.9122	 95.1428
2127.3781	 95.1515
2127.8440	 95.1633
2128.3099	 95.1781
2128.7758	 95.1962
2129.2417	 95.2174
2129.7077	 95.2417
2130.1736	 95.2689
2130.6395	 95.2989
2131.1054	 95.3314
2131.5713	 95.3660
2132.0372	 95.4024
2132.5032	 95.4403
2132.9691	 95.4790
2133.4350	 95.5183
2133.9009	 95.5577
2134.3668	 95.5966
2134.8327	 95.6347
2135.2987	 95.6716
2135.7646	 95.7070
2136.2305	 95.7405
2136.6964	 95.7720
2137.1623	 95.8013
2137.6282	 95.8282
2138.0942	 95.8528
2138.5601	 95.8751
2139.0260	 95.8952
2139.4919	 95.9133
2139.9578	 95.9296
2140.4238	 95.9445
2140.8897	 95.9581
2141.3556	 95.9708
2141.8215	 95.9830
2142.2874	 95.9950
2142.7533	 96.0071
2143.2193	 96.0196
2143.6852	 96.0329
2144.1511	 96.0471
2144.6170	 96.0626
2145.0829	 96.0795
2145.5488	 96.0980
2146.0148	 96.1182
2146.4807	 96.1402
2146.9466	 96.1642
2147.4125	 96.1901
2147.8784	 96.2181
2148.3443	 96.2481
2148.8103	 96.2803
2149.2762	 96.3146
2149.7421	 96.3510
2150.2080	 96.3895
2150.6739	 96.4303
2151.1398	 96.4731
2151.6058	 96.5181
2152.0717	 96.5652
2152.5376	 96.6142
2153.0035	 96.6651
2153.4694	 96.7176
2153.9354	 96.7715
2154.4013	 96.8264
2154.8672	 96.8817
2155.3331	 96.9370
2155.7990	 96.9916
2156.2649	 97.0447
2156.7309	 97.0955
2157.1968	 97.1430
2157.6627	 97.1865
2158.1286	 97.2249
2158.5945	 97.2573
2159.0604	 97.2831
2159.5264	 97.3016
2159.9923	 97.3123
2160.4582	 97.3149
2160.9241	 97.3092
2161.3900	 97.2953
2161.8559	 97.2734
2162.3219	 97.2440
2162.7878	 97.2077
2163.2537	 97.1650
2163.7196	 97.1169
2164.1855	 97.0640
2164.6514	 97.0074
2165.1174	 96.9478
2165.5833	 96.8863
2166.0492	 96.8236
2166.5151	 96.7607
2166.9810	 96.6983
2167.4470	 96.6373
2167.9129	 96.5782
2168.3788	 96.5219
2168.8447	 96.4688
2169.3106	 96.4195
2169.7765	 96.3744
2170.2425	 96.3339
2170.7084	 96.2982
2171.1743	 96.2676
2171.6402	 96.2420
2172.1061	 96.2216
2172.5720	 96.2062
2173.0380	 96.1957
2173.5039	 96.1897
2173.9698	 96.1880
2174.4357	 96.1902
2174.9016	 96.1956
2175.3675	 96.2039
2175.8335	 96.2145
2176.2994	 96.2267
2176.7653	 96.2400
2177.2312	 96.2538
2177.6971	 96.2676
2178.1630	 96.2808
2178.6290	 96.2930
2179.0949	 96.3039
2179.5608	 96.3131
2180.0267	 96.3205
2180.4926	 96.3258
2180.9586	 96.3290
2181.4245	 96.3303
2181.8904	 96.3295
2182.3563	 96.3270
2182.8222	 96.3229
2183.2881	 96.3174
2183.7541	 96.3109
2184.2200	 96.3036
2184.6859	 96.2958
2185.1518	 96.2877
2185.6177	 96.2796
2186.0836	 96.2716
2186.5496	 96.2638
2187.0155	 96.2564
2187.4814	 96.2494
2187.9473	 96.2427
2188.4132	 96.2362
2188.8791	 96.2299
2189.3451	 96.2235
2189.8110	 96.2168
2190.2769	 96.2095
2190.7428	 96.2016
2191.2087	 96.1926
2191.6746	 96.1824
2192.1406	 96.1708
2192.6065	 96.1575
2193.0724	 96.1425
2193.5383	 96.1256
2194.0042	 96.1068
2194.4702	 96.0862
2194.9361	 96.0636
2195.4020	 96.0394
2195.8679	 96.0136
2196.3338	 95.9864
2196.7997	 95.9582
2197.2657	 95.9291
2197.7316	 95.8996
2198.1975	 95.8699
2198.6634	 95.8404
2199.1293	 95.8115
2199.5952	 95.7834
2200.0612	 95.7565
2200.5271	 95.7310
2200.9930	 95.7071
2201.4589	 95.6851
2201.9248	 95.6650
2202.3907	 95.6469
2202.8567	 95.6308
2203.3226	 95.6166
2203.7885	 95.6042
2204.2544	 95.5934
2204.7203	 95.5840
2205.1862	 95.5758
2205.6522	 95.5683
2206.1181	 95.5615
2206.5840	 95.5548
2207.0499	 95.5481
2207.5158	 95.5410
2207.9818	 95.5334
2208.4477	 95.5249
2208.9136	 95.5155
2209.3795	 95.5049
2209.8454	 95.4933
2210.3113	 95.4804
2210.7773	 95.4665
2211.2432	 95.4516
2211.7091	 95.4358
2212.1750	 95.4194
2212.6409	 95.4026
2213.1068	 95.3856
2213.5728	 95.3688
2214.0387	 95.3524
2214.5046	 95.3367
2214.9705	 95.3220
2215.4364	 95.3085
2215.9023	 95.2966
2216.3683	 95.2862
2216.8342	 95.2777
2217.3001	 95.2711
2217.7660	 95.2663
2218.2319	 95.2635
2218.6978	 95.2624
2219.1638	 95.2629
2219.6297	 95.2650
2220.0956	 95.2682
2220.5615	 95.2725
2221.0274	 95.2774
2221.4934	 95.2827
2221.9593	 95.2880
2222.4252	 95.2932
2222.8911	 95.2977
2223.3570	 95.3015
2223.8229	 95.3042
2224.2889	 95.3057
2224.7548	 95.3057
2225.2207	 95.3041
2225.6866	 95.3008
2226.1525	 95.2959
2226.6184	 95.2892
2227.0844	 95.2808
2227.5503	 95.2707
2228.0162	 95.2592
2228.4821	 95.2462
2228.9480	 95.2320
2229.4139	 95.2168
2229.8799	 95.2006
2230.3458	 95.1836
2230.8117	 95.1662
2231.2776	 95.1483
2231.7435	 95.1302
2232.2094	 95.1120
2232.6754	 95.0938
2233.1413	 95.0758
2233.6072	 95.0580
2234.0731	 95.0405
2234.5390	 95.0234
2235.0050	 95.0066
2235.4709	 94.9902
2235.9368	 94.9743
2236.4027	 94.9587
2236.8686	 94.9436
2237.3345	 94.9289
2237.8005	 94.9147
2238.2664	 94.9010
2238.7323	 94.8878
2239.1982	 94.8751
2239.6641	 94.8631
2240.1300	 94.8518
2240.5960	 94.8413
2241.0619	 94.8316
2241.5278	 94.8230
2241.9937	 94.8154
2242.4596	 94.8089
2242.9255	 94.8037
2243.3915	 94.7998
2243.8574	 94.7972
2244.3233	 94.7960
2244.7892	 94.7962
2245.2551	 94.7977
2245.7210	 94.8005
2246.1870	 94.8045
2246.6529	 94.8094
2247.1188	 94.8153
2247.5847	 94.8217
2248.0506	 94.8286
2248.5166	 94.8357
2248.9825	 94.8426
2249.4484	 94.8492
2249.9143	 94.8551
2250.3802	 94.8601
2250.8461	 94.8639
2251.3121	 94.8662
2251.7780	 94.8670
2252.2439	 94.8659
2252.7098	 94.8629
2253.1757	 94.8579
2253.6416	 94.8509
2254.1076	 94.8418
2254.5735	 94.8308
2255.0394	 94.8179
2255.5053	 94.8032
2255.9712	 94.7871
2256.4371	 94.7697
2256.9031	 94.7512
2257.3690	 94.7319
2257.8349	 94.7121
2258.3008	 94.6921
2258.7667	 94.6721
2259.2326	 94.6525
2259.6986	 94.6334
2260.1645	 94.6151
2260.6304	 94.5977
2261.0963	 94.5814
2261.5622	 94.5663
2262.0281	 94.5524
2262.4941	 94.5398
2262.9600	 94.5284
2263.4259	 94.5181
2263.8918	 94.5088
2264.3577	 94.5003
2264.8237	 94.4925
2265.2896	 94.4852
2265.7555	 94.4782
2266.2214	 94.4711
2266.6873	 94.4639
2267.1532	 94.4563
2267.6192	 94.4481
2268.0851	 94.4391
2268.5510	 94.4293
2269.0169	 94.4185
2269.4828	 94.4066
2269.9487	 94.3936
2270.4147	 94.3795
2270.8806	 94.3644
2271.3465	 94.3483
2271.8124	 94.3314
2272.2783	 94.3137
2272.7442	 94.2954
2273.2102	 94.2768
2273.6761	 94.2579
2274.1420	 94.2389
2274.6079	 94.2201
2275.0738	 94.2016
2275.5397	 94.1836
2276.0057	 94.1661
2276.4716	 94.1494
2276.9375	 94.1334
2277.4034	 94.1183
2277.8693	 94.1041
2278.3353	 94.0906
2278.8012	 94.0781
2279.2671	 94.0662
2279.7330	 94.0550
2280.1989	 94.0444
2280.6648	 94.0343
2281.1308	 94.0245
2281.5967	 94.0148
2282.0626	 94.0053
2282.5285	 93.9957
2282.9944	 93.9860
2283.4603	 93.9760
2283.9263	 93.9657
2284.3922	 93.9551
2284.8581	 93.9441
2285.3240	 93.9327
2285.7899	 93.9209
2286.2558	 93.9087
2286.7218	 93.8963
2287.1877	 93.8836
2287.6536	 93.8708
2288.1195	 93.8579
2288.5854	 93.8451
2289.0513	 93.8324
2289.5173	 93.8199
2289.9832	 93.8078
2290.4491	 93.7961
2290.9150	 93.7849
2291.3809	 93.7743
2291.8469	 93.7643
2292.3128	 93.7550
2292.7787	 93.7464
2293.2446	 93.7384
2293.7105	 93.7312
2294.1764	 93.7246
2294.6424	 93.7187
2295.1083	 93.7133
2295.5742	 93.7085
2296.0401	 93.7041
2296.5060	 93.7001
2296.9719	 93.6965
2297.4379	 93.6932
2297.9038	 93.6901
2298.3697	 93.6872
2298.8356	 93.6844
2299.3015	 93.6817
2299.7674	 93.6791
2300.2334	 93.6766
2300.6993	 93.6742
2301.1652	 93.6719
2301.6311	 93.6696
2302.0970	 93.6675
2302.5629	 93.6656
2303.0289	 93.6638
2303.4948	 93.6623
2303.9607	 93.6610
2304.4266	 93.6600
2304.8925	 93.6592
2305.3585	 93.6587
2305.8244	 93.6585
2306.2903	 93.6586
2306.7562	 93.6588
2307.2221	 93.6592
2307.6880	 93.6596
2308.1540	 93.6601
2308.6199	 93.6605
2309.0858	 93.6607
2309.5517	 93.6607
2310.0176	 93.6602
2310.4835	 93.6592
2310.9495	 93.6576
2311.4154	 93.6554
2311.8813	 93.6523
2312.3472	 93.6483
2312.8131	 93.6435
2313.2790	 93.6377
2313.7450	 93.6310
2314.2109	 93.6233
2314.6768	 93.6147
2315.1427	 93.6054
2315.6086	 93.5953
2316.0745	 93.5846
2316.5405	 93.5735
2317.0064	 93.5620
2317.4723	 93.5504
2317.9382	 93.5388
2318.4041	 93.5274
2318.8701	 93.5163
2319.3360	 93.5057
2319.8019	 93.4958
2320.2678	 93.4867
2320.7337	 93.4785
2321.1996	 93.4712
2321.6656	 93.4649
2322.1315	 93.4597
2322.5974	 93.4555
2323.0633	 93.4523
2323.5292	 93.4500
2323.9951	 93.4486
2324.4611	 93.4479
2324.9270	 93.4478
2325.3929	 93.4482
2325.8588	 93.4489
2326.3247	 93.4497
2326.7906	 93.4505
2327.2566	 93.4510
2327.7225	 93.4511
2328.1884	 93.4506
2328.6543	 93.4494
2329.1202	 93.4473
2329.5861	 93.4442
2330.0521	 93.4400
2330.5180	 93.4345
2330.9839	 93.4278
2331.4498	 93.4198
2331.9157	 93.4104
2332.3817	 93.3999
2332.8476	 93.3881
2333.3135	 93.3753
2333.7794	 93.3616
2334.2453	 93.3472
2334.7112	 93.3323
2335.1772	 93.3172
2335.6431	 93.3020
2336.1090	 93.2871
2336.5749	 93.2727
2337.0408	 93.2592
2337.5067	 93.2467
2337.9727	 93.2355
2338.4386	 93.2259
2338.9045	 93.2179
2339.3704	 93.2117
2339.8363	 93.2074
2340.3022	 93.2051
2340.7682	 93.2047
2341.2341	 93.2063
2341.7000	 93.2099
2342.1659	 93.2152
2342.6318	 93.2223
2343.0977	 93.2309
2343.5637	 93.2410
2344.0296	 93.2525
2344.4955	 93.2651
2344.9614	 93.2788
2345.4273	 93.2933
2345.8933	 93.3086
2346.3592	 93.3244
2346.8251	 93.3407
2347.2910	 93.3572
2347.7569	 93.3740
2348.2228	 93.3907
2348.6888	 93.4073
2349.1547	 93.4237
2349.6206	 93.4397
2350.0865	 93.4551
2350.5524	 93.4699
2351.0183	 93.4838
2351.4843	 93.4966
2351.9502	 93.5083
2352.4161	 93.5185
2352.8820	 93.5272
2353.3479	 93.5342
2353.8138	 93.5392
2354.2798	 93.5420
2354.7457	 93.5425
2355.2116	 93.5405
2355.6775	 93.5359
2356.1434	 93.5285
2356.6093	 93.5182
2357.0753	 93.5050
2357.5412	 93.4889
2358.0071	 93.4700
2358.4730	 93.4483
2358.9389	 93.4241
2359.4049	 93.3977
2359.8708	 93.3692
2360.3367	 93.3391
2360.8026	 93.3079
2361.2685	 93.2758
2361.7344	 93.2435
2362.2004	 93.2113
2362.6663	 93.1798
2363.1322	 93.1492
2363.5981	 93.1201
2364.0640	 93.0928
2364.5299	 93.0674
2364.9959	 93.0443
2365.4618	 93.0234
2365.9277	 93.0050
2366.3936	 92.9890
2366.8595	 92.9753
2367.3254	 92.9639
2367.7914	 92.9546
2368.2573	 92.9472
2368.7232	 92.9416
2369.1891	 92.9375
2369.6550	 92.9348
2370.1209	 92.9333
2370.5869	 92.9327
2371.0528	 92.9328
2371.5187	 92.9337
2371.9846	 92.9350
2372.4505	 92.9368
2372.9165	 92.9389
2373.3824	 92.9412
2373.8483	 92.9438
2374.3142	 92.9466
2374.7801	 92.9496
2375.2460	 92.9529
2375.7120	 92.9564
2376.1779	 92.9602
2376.6438	 92.9643
2377.1097	 92.9689
2377.5756	 92.9738
2378.0415	 92.9791
2378.5075	 92.9850
2378.9734	 92.9913
2379.4393	 92.9981
2379.9052	 93.0053
2380.3711	 93.0130
2380.8370	 93.0211
2381.3030	 93.0295
2381.7689	 93.0382
2382.2348	 93.0471
2382.7007	 93.0561
2383.1666	 93.0651
2383.6325	 93.0740
2384.0985	 93.0826
2384.5644	 93.0909
2385.0303	 93.0987
2385.4962	 93.1060
2385.9621	 93.1127
2386.4281	 93.1186
2386.8940	 93.1238
2387.3599	 93.1281
2387.8258	 93.1316
2388.2917	 93.1342
2388.7576	 93.1360
2389.2236	 93.1371
2389.6895	 93.1373
2390.1554	 93.1370
2390.6213	 93.1361
2391.0872	 93.1349
2391.5531	 93.1333
2392.0191	 93.1316
2392.4850	 93.1300
2392.9509	 93.1285
2393.4168	 93.1273
2393.8827	 93.1265
2394.3486	 93.1263
2394.8146	 93.1267
2395.2805	 93.1279
2395.7464	 93.1298
2396.2123	 93.1325
2396.6782	 93.1360
2397.1441	 93.1403
2397.6101	 93.1452
2398.0760	 93.1506
2398.5419	 93.1565
2399.0078	 93.1628
2399.4737	 93.1691
2399.9396	 93.1755
2400.4056	 93.1817
2400.8715	 93.1875
2401.3374	 93.1928
2401.8033	 93.1974
2402.2692	 93.2011
2402.7352	 93.2040
2403.2011	 93.2057
2403.6670	 93.2064
2404.1329	 93.2059
2404.5988	 93.2043
2405.0647	 93.2016
2405.5307	 93.1978
2405.9966	 93.1930
2406.4625	 93.1874
2406.9284	 93.1810
2407.3943	 93.1741
2407.8602	 93.1668
2408.3262	 93.1593
2408.7921	 93.1517
2409.2580	 93.1443
2409.7239	 93.1372
2410.1898	 93.1307
2410.6557	 93.1247
2411.1217	 93.1195
2411.5876	 93.1152
2412.0535	 93.1118
2412.5194	 93.1093
2412.9853	 93.1078
2413.4512	 93.1072
2413.9172	 93.1076
2414.3831	 93.1087
2414.8490	 93.1106
2415.3149	 93.1130
2415.7808	 93.1160
2416.2468	 93.1192
2416.7127	 93.1227
2417.1786	 93.1262
2417.6445	 93.1296
2418.1104	 93.1327
2418.5763	 93.1356
2419.0423	 93.1380
2419.5082	 93.1398
2419.9741	 93.1411
2420.4400	 93.1418
2420.9059	 93.1419
2421.3718	 93.1413
2421.8378	 93.1402
2422.3037	 93.1385
2422.7696	 93.1364
2423.2355	 93.1338
2423.7014	 93.1309
2424.1673	 93.1278
2424.6333	 93.1246
2425.0992	 93.1213
2425.5651	 93.1181
2426.0310	 93.1149
2426.4969	 93.1119
2426.9628	 93.1092
2427.4288	 93.1067
2427.8947	 93.1044
2428.3606	 93.1024
2428.8265	 93.1006
2429.2924	 93.0991
2429.7584	 93.0976
2430.2243	 93.0963
2430.6902	 93.0951
2431.1561	 93.0938
2431.6220	 93.0924
2432.0879	 93.0908
2432.5539	 93.0891
2433.0198	 93.0871
2433.4857	 93.0848
2433.9516	 93.0822
2434.4175	 93.0793
2434.8834	 93.0761
2435.3494	 93.0725
2435.8153	 93.0688
2436.2812	 93.0649
2436.7471	 93.0608
2437.2130	 93.0567
2437.6789	 93.0526
2438.1449	 93.0486
2438.6108	 93.0449
2439.0767	 93.0414
2439.5426	 93.0382
2440.0085	 93.0355
2440.4744	 93.0332
2440.9404	 93.0314
2441.4063	 93.0300
2441.8722	 93.0292
2442.3381	 93.0287
2442.8040	 93.0287
2443.2700	 93.0290
2443.7359	 93.0296
2444.2018	 93.0303
2444.6677	 93.0311
2445.1336	 93.0317
2445.5995	 93.0322
2446.0655	 93.0323
2446.5314	 93.0320
2446.9973	 93.0311
2447.4632	 93.0296
2447.9291	 93.0274
2448.3950	 93.0244
2448.8610	 93.0205
2449.3269	 93.0158
2449.7928	 93.0102
2450.2587	 93.0037
2450.7246	 92.9965
2451.1905	 92.9885
2451.6565	 92.9799
2452.1224	 92.9707
2452.5883	 92.9611
2453.0542	 92.9512
2453.5201	 92.9411
2453.9860	 92.9309
2454.4520	 92.9207
2454.9179	 92.9107
2455.3838	 92.9010
2455.8497	 92.8917
2456.3156	 92.8828
2456.7816	 92.8744
2457.2475	 92.8666
2457.7134	 92.8594
2458.1793	 92.8528
2458.6452	 92.8467
2459.1111	 92.8412
2459.5771	 92.8363
2460.0430	 92.8318
2460.5089	 92.8277
2460.9748	 92.8240
2461.4407	 92.8205
2461.9066	 92.8172
2462.3726	 92.8141
2462.8385	 92.8110
2463.3044	 92.8080
2463.7703	 92.8049
2464.2362	 92.8018
2464.7021	 92.7986
2465.1681	 92.7954
2465.6340	 92.7921
2466.0999	 92.7888
2466.5658	 92.7855
2467.0317	 92.7822
2467.4976	 92.7790
2467.9636	 92.7760
2468.4295	 92.7731
2468.8954	 92.7706
2469.3613	 92.7683
2469.8272	 92.7664
2470.2932	 92.7649
2470.7591	 92.7638
2471.2250	 92.7631
2471.6909	 92.7628
2472.1568	 92.7629
2472.6227	 92.7634
2473.0887	 92.7641
2473.5546	 92.7652
2474.0205	 92.7664
2474.4864	 92.7677
2474.9523	 92.7690
2475.4182	 92.7703
2475.8842	 92.7714
2476.3501	 92.7723
2476.8160	 92.7728
2477.2819	 92.7730
2477.7478	 92.7728
2478.2137	 92.7721
2478.6797	 92.7709
2479.1456	 92.7692
2479.6115	 92.7670
2480.0774	 92.7643
2480.5433	 92.7612
2481.0092	 92.7578
2481.4752	 92.7540
2481.9411	 92.7500
2482.4070	 92.7458
2482.8729	 92.7416
2483.3388	 92.7373
2483.8048	 92.7332
2484.2707	 92.7292
2484.7366	 92.7255
2485.2025	 92.7220
2485.6684	 92.7189
2486.1343	 92.7162
2486.6003	 92.7138
2487.0662	 92.7118
2487.5321	 92.7101
2487.9980	 92.7088
2488.4639	 92.7076
2488.9298	 92.7067
2489.3958	 92.7059
2489.8617	 92.7052
2490.3276	 92.7044
2490.7935	 92.7035
2491.2594	 92.7025
2491.7253	 92.7011
2492.1913	 92.6995
2492.6572	 92.6975
2493.1231	 92.6951
2493.5890	 92.6923
2494.0549	 92.6890
2494.5208	 92.6854
2494.9868	 92.6813
2495.4527	 92.6770
2495.9186	 92.6723
2496.3845	 92.6674
2496.8504	 92.6624
2497.3164	 92.6573
2497.7823	 92.6522
2498.2482	 92.6472
2498.7141	 92.6423
2499.1800	 92.6377
2499.6459	 92.6333
2500.1119	 92.6293
2500.5778	 92.6256
2501.0437	 92.6222
2501.5096	 92.6193
2501.9755	 92.6166
2502.4414	 92.6143
2502.9074	 92.6123
2503.3733	 92.6105
2503.8392	 92.6088
2504.3051	 92.6072
2504.7710	 92.6057
2505.2369	 92.6040
2505.7029	 92.6023
2506.1688	 92.6003
2506.6347	 92.5981
2507.1006	 92.5956
2507.5665	 92.5928
2508.0324	 92.5896
2508.4984	 92.5862
2508.9643	 92.5825
2509.4302	 92.5785
2509.8961	 92.5743
2510.3620	 92.5700
2510.8280	 92.5657
2511.2939	 92.5615
2511.7598	 92.5574
2512.2257	 92.5535
2512.6916	 92.5499
2513.1575	 92.5468
2513.6235	 92.5442
2514.0894	 92.5421
2514.5553	 92.5406
2515.0212	 92.5397
2515.4871	 92.5394
2515.9530	 92.5397
2516.4190	 92.5406
2516.8849	 92.5420
2517.3508	 92.5437
2517.8167	 92.5458
2518.2826	 92.5481
2518.7485	 92.5504
2519.2145	 92.5527
2519.6804	 92.5548
2520.1463	 92.5566
2520.6122	 92.5579
2521.0781	 92.5586
2521.5440	 92.5587
2522.0100	 92.5581
2522.4759	 92.5567
2522.9418	 92.5545
2523.4077	 92.5515
2523.8736	 92.5477
2524.3396	 92.5432
2524.8055	 92.5380
2525.2714	 92.5322
2525.7373	 92.5259
2526.2032	 92.5194
2526.6691	 92.5126
2527.1351	 92.5058
2527.6010	 92.4991
2528.0669	 92.4927
2528.5328	 92.4866
2528.9987	 92.4811
2529.4646	 92.4761
2529.9306	 92.4719
2530.3965	 92.4684
2530.8624	 92.4656
2531.3283	 92.4637
2531.7942	 92.4624
2532.2601	 92.4619
2532.7261	 92.4620
2533.1920	 92.4626
2533.6579	 92.4636
2534.1238	 92.4648
2534.5897	 92.4662
2535.0556	 92.4675
2535.5216	 92.4687
2535.9875	 92.4695
2536.4534	 92.4698
2536.9193	 92.4696
2537.3852	 92.4687
2537.8511	 92.4671
2538.3171	 92.4647
2538.7830	 92.4615
2539.2489	 92.4575
2539.7148	 92.4527
2540.1807	 92.4473
2540.6467	 92.4413
2541.1126	 92.4348
2541.5785	 92.4279
2542.0444	 92.4208
2542.5103	 92.4137
2542.9762	 92.4066
2543.4422	 92.3998
2543.9081	 92.3934
2544.3740	 92.3875
2544.8399	 92.3821
2545.3058	 92.3775
2545.7717	 92.3737
2546.2377	 92.3706
2546.7036	 92.3684
2547.1695	 92.3669
2547.6354	 92.3662
2548.1013	 92.3661
2548.5672	 92.3665
2549.0332	 92.3674
2549.4991	 92.3685
2549.9650	 92.3697
2550.4309	 92.3709
2550.8968	 92.3718
2551.3627	 92.3725
2551.8287	 92.3726
2552.2946	 92.3720
2552.7605	 92.3707
2553.2264	 92.3686
2553.6923	 92.3656
2554.1583	 92.3617
2554.6242	 92.3568
2555.0901	 92.3510
2555.5560	 92.3443
2556.0219	 92.3368
2556.4878	 92.3287
2556.9538	 92.3200
2557.4197	 92.3109
2557.8856	 92.3015
2558.3515	 92.2920
2558.8174	 92.2825
2559.2833	 92.2732
2559.7493	 92.2643
2560.2152	 92.2559
2560.6811	 92.2480
2561.1470	 92.2409
2561.6129	 92.2345
2562.0788	 92.2290
2562.5448	 92.2243
2563.0107	 92.2205
2563.4766	 92.2175
2563.9425	 92.2152
2564.4084	 92.2137
2564.8743	 92.2128
2565.3403	 92.2124
2565.8062	 92.2124
2566.2721	 92.2126
2566.7380	 92.2130
2567.2039	 92.2134
2567.6699	 92.2138
2568.1358	 92.2139
2568.6017	 92.2136
2569.0676	 92.2130
2569.5335	 92.2120
2569.9994	 92.2104
2570.4654	 92.2082
2570.9313	 92.2055
2571.3972	 92.2021
2571.8631	 92.1982
2572.3290	 92.1938
2572.7949	 92.1888
2573.2609	 92.1834
2573.7268	 92.1775
2574.1927	 92.1713
2574.6586	 92.1647
2575.1245	 92.1579
2575.5904	 92.1509
2576.0564	 92.1437
2576.5223	 92.1364
2576.9882	 92.1289
2577.4541	 92.1214
2577.9200	 92.1138
2578.3859	 92.1061
2578.8519	 92.0983
2579.3178	 92.0905
2579.7837	 92.0826
2580.2496	 92.0745
2580.7155	 92.0664
2581.1815	 92.0582
2581.6474	 92.0498
2582.1133	 92.0414
2582.5792	 92.0328
2583.0451	 92.0242
2583.5110	 92.0155
2583.9770	 92.0069
2584.4429	 91.9983
2584.9088	 91.9898
2585.3747	 91.9814
2585.8406	 91.9734
2586.3065	 91.9656
2586.7725	 91.9583
2587.2384	 91.9514
2587.7043	 91.9450
2588.1702	 91.9393
2588.6361	 91.9341
2589.1020	 91.9296
2589.5680	 91.9258
2590.0339	 91.9227
2590.4998	 91.9202
2590.9657	 91.9184
2591.4316	 91.9171
2591.8975	 91.9163
2592.3635	 91.9160
2592.8294	 91.9159
2593.2953	 91.9161
2593.7612	 91.9164
2594.2271	 91.9167
2594.6931	 91.9168
2595.1590	 91.9167
2595.6249	 91.9162
2596.0908	 91.9153
2596.5567	 91.9138
2597.0226	 91.9118
2597.4886	 91.9092
2597.9545	 91.9059
2598.4204	 91.9020
2598.8863	 91.8974
2599.3522	 91.8923
2599.8181	 91.8867
2600.2841	 91.8806
2600.7500	 91.8743
2601.2159	 91.8677
2601.6818	 91.8610
2602.1477	 91.8544
2602.6136	 91.8479
2603.0796	 91.8417
2603.5455	 91.8358
2604.0114	 91.8305
2604.4773	 91.8257
2604.9432	 91.8216
2605.4091	 91.8182
2605.8751	 91.8155
2606.3410	 91.8135
2606.8069	 91.8122
2607.2728	 91.8115
2607.7387	 91.8115
2608.2047	 91.8119
2608.6706	 91.8128
2609.1365	 91.8139
2609.6024	 91.8152
2610.0683	 91.8165
2610.5342	 91.8178
2611.0002	 91.8188
2611.4661	 91.8194
2611.9320	 91.8196
2612.3979	 91.8193
2612.8638	 91.8182
2613.3297	 91.8165
2613.7957	 91.8141
2614.2616	 91.8108
2614.7275	 91.8068
2615.1934	 91.8020
2615.6593	 91.7964
2616.1252	 91.7902
2616.5912	 91.7834
2617.0571	 91.7760
2617.5230	 91.7683
2617.9889	 91.7601
2618.4548	 91.7518
2618.9207	 91.7433
2619.3867	 91.7348
2619.8526	 91.7263
2620.3185	 91.7180
2620.7844	 91.7098
2621.2503	 91.7020
2621.7163	 91.6944
2622.1822	 91.6872
2622.6481	 91.6803
2623.1140	 91.6737
2623.5799	 91.6675
2624.0458	 91.6616
2624.5118	 91.6559
2624.9777	 91.6505
2625.4436	 91.6452
2625.9095	 91.6400
2626.3754	 91.6348
2626.8413	 91.6296
2627.3073	 91.6244
2627.7732	 91.6191
2628.2391	 91.6136
2628.7050	 91.6079
2629.1709	 91.6021
2629.6368	 91.5960
2630.1028	 91.5898
2630.5687	 91.5834
2631.0346	 91.5768
2631.5005	 91.5701
2631.9664	 91.5633
2632.4323	 91.5565
2632.8983	 91.5496
2633.3642	 91.5428
2633.8301	 91.5361
2634.2960	 91.5295
2634.7619	 91.5230
2635.2279	 91.5167
2635.6938	 91.5107
2636.1597	 91.5048
2636.6256	 91.4992
2637.0915	 91.4938
2637.5574	 91.4887
2638.0234	 91.4837
2638.4893	 91.4790
2638.9552	 91.4744
2639.4211	 91.4699
2639.8870	 91.4655
2640.3529	 91.4612
2640.8189	 91.4569
2641.2848	 91.4527
2641.7507	 91.4484
2642.2166	 91.4441
2642.6825	 91.4398
2643.1484	 91.4355
2643.6144	 91.4312
2644.0803	 91.4268
2644.5462	 91.4225
2645.0121	 91.4182
2645.4780	 91.4141
2645.9439	 91.4100
2646.4099	 91.4062
2646.8758	 91.4026
2647.3417	 91.3992
2647.8076	 91.3962
2648.2735	 91.3935
2648.7395	 91.3912
2649.2054	 91.3893
2649.6713	 91.3878
2650.1372	 91.3868
2650.6031	 91.3862
2651.0690	 91.3860
2651.5350	 91.3862
2652.0009	 91.3867
2652.4668	 91.3876
2652.9327	 91.3887
2653.3986	 91.3900
2653.8645	 91.3914
2654.3305	 91.3929
2654.7964	 91.3945
2655.2623	 91.3959
2655.7282	 91.3973
2656.1941	 91.3985
2656.6600	 91.3994
2657.1260	 91.4001
2657.5919	 91.4005
2658.0578	 91.4006
2658.5237	 91.4004
2658.9896	 91.3998
2659.4555	 91.3989
2659.9215	 91.3977
2660.3874	 91.3962
2660.8533	 91.3945
2661.3192	 91.3926
2661.7851	 91.3905
2662.2511	 91.3883
2662.7170	 91.3860
2663.1829	 91.3837
2663.6488	 91.3814
2664.1147	 91.3792
2664.5806	 91.3770
2665.0466	 91.3749
2665.5125	 91.3729
2665.9784	 91.3711
2666.4443	 91.3693
2666.9102	 91.3676
2667.3761	 91.3661
2667.8421	 91.3645
2668.3080	 91.3630
2668.7739	 91.3614
2669.2398	 91.3598
2669.7057	 91.3580
2670.1716	 91.3561
2670.6376	 91.3540
2671.1035	 91.3517
2671.5694	 91.3491
2672.0353	 91.3462
2672.5012	 91.3430
2672.9671	 91.3396
2673.4331	 91.3358
2673.8990	 91.3318
2674.3649	 91.3275
2674.8308	 91.3231
2675.2967	 91.3185
2675.7626	 91.3138
2676.2286	 91.3090
2676.6945	 91.3044
2677.1604	 91.2998
2677.6263	 91.2954
2678.0922	 91.2912
2678.5582	 91.2873
2679.0241	 91.2837
2679.4900	 91.2805
2679.9559	 91.2777
2680.4218	 91.2753
2680.8877	 91.2733
2681.3537	 91.2717
2681.8196	 91.2704
2682.2855	 91.2695
2682.7514	 91.2689
2683.2173	 91.2685
2683.6832	 91.2683
2684.1492	 91.2681
2684.6151	 91.2679
2685.0810	 91.2676
2685.5469	 91.2672
2686.0128	 91.2665
2686.4787	 91.2654
2686.9447	 91.2640
2687.4106	 91.2622
2687.8765	 91.2599
2688.3424	 91.2571
2688.8083	 91.2538
2689.2742	 91.2500
2689.7402	 91.2457
2690.2061	 91.2410
2690.6720	 91.2359
2691.1379	 91.2304
2691.6038	 91.2247
2692.0698	 91.2188
2692.5357	 91.2128
2693.0016	 91.2067
2693.4675	 91.2007
2693.9334	 91.1948
2694.3993	 91.1892
2694.8653	 91.1838
2695.3312	 91.1788
2695.7971	 91.1741
2696.2630	 91.1699
2696.7289	 91.1661
2697.1948	 91.1628
2697.6608	 91.1600
2698.1267	 91.1576
2698.5926	 91.1556
2699.0585	 91.1539
2699.5244	 91.1526
2699.9903	 91.1515
2700.4563	 91.1506
2700.9222	 91.1498
2701.3881	 91.1491
2701.8540	 91.1483
2702.3199	 91.1475
2702.7858	 91.1466
2703.2518	 91.1455
2703.7177	 91.1442
2704.1836	 91.1426
2704.6495	 91.1408
2705.1154	 91.1386
2705.5814	 91.1363
2706.0473	 91.1336
2706.5132	 91.1307
2706.9791	 91.1276
2707.4450	 91.1242
2707.9109	 91.1207
2708.3769	 91.1171
2708.8428	 91.1134
2709.3087	 91.1097
2709.7746	 91.1059
2710.2405	 91.1021
2710.7064	 91.0984
2711.1724	 91.0947
2711.6383	 91.0911
2712.1042	 91.0876
2712.5701	 91.0841
2713.0360	 91.0807
2713.5019	 91.0773
2713.9679	 91.0740
2714.4338	 91.0706
2714.8997	 91.0672
2715.3656	 91.0638
2715.8315	 91.0602
2716.2974	 91.0566
2716.7634	 91.0528
2717.2293	 91.0489
2717.6952	 91.0449
2718.1611	 91.0407
2718.6270	 91.0363
2719.0930	 91.0319
2719.5589	 91.0273
2720.0248	 91.0226
2720.4907	 91.0179
2720.9566	 91.0132
2721.4225	 91.0085
2721.8885	 91.0039
2722.3544	 90.9995
2722.8203	 90.9953
2723.2862	 90.9912
2723.7521	 90.9875
2724.2180	 90.9840
2724.6840	 90.9809
2725.1499	 90.9781
2725.6158	 90.9757
2726.0817	 90.9736
2726.5476	 90.9718
2727.0135	 90.9704
2727.4795	 90.9692
2727.9454	 90.9682
2728.4113	 90.9675
2728.8772	 90.9668
2729.3431	 90.9663
2729.8090	 90.9657
2730.2750	 90.9652
2730.7409	 90.9645
2731.2068	 90.9636
2731.6727	 90.9626
2732.1386	 90.9613
2732.6046	 90.9597
2733.0705	 90.9579
2733.5364	 90.9557
2734.0023	 90.9533
2734.4682	 90.9506
2734.9341	 90.9476
2735.4001	 90.9444
2735.8660	 90.9411
2736.3319	 90.9376
2736.7978	 90.9340
2737.2637	 90.9304
2737.7296	 90.9269
2738.1956	 90.9235
2738.6615	 90.9202
2739.1274	 90.9171
2739.5933	 90.9143
2740.0592	 90.9117
2740.5251	 90.9094
2740.9911	 90.9074
2741.4570	 90.9056
2741.9229	 90.9042
2742.3888	 90.9030
2742.8547	 90.9020
2743.3206	 90.9011
2743.7866	 90.9003
2744.2525	 90.8996
2744.7184	 90.8989
2745.1843	 90.8981
2745.6502	 90.8971
2746.1162	 90.8959
2746.5821	 90.8945
2747.0480	 90.8927
2747.5139	 90.8906
2747.9798	 90.8881
2748.4457	 90.8851
2748.9117	 90.8818
2749.3776	 90.8781
2749.8435	 90.8739
2750.3094	 90.8695
2750.7753	 90.8647
2751.2412	 90.8596
2751.7072	 90.8544
2752.1731	 90.8490
2752.6390	 90.8435
2753.1049	 90.8380
2753.5708	 90.8326
2754.0367	 90.8273
2754.5027	 90.8222
2754.9686	 90.8173
2755.4345	 90.8126
2755.9004	 90.8083
2756.3663	 90.8044
2756.8322	 90.8007
2757.2982	 90.7974
2757.7641	 90.7945
2758.2300	 90.7918
2758.6959	 90.7894
2759.1618	 90.7873
2759.6278	 90.7853
2760.0937	 90.7835
2760.5596	 90.7818
2761.0255	 90.7801
2761.4914	 90.7784
2761.9573	 90.7766
2762.4233	 90.7748
2762.8892	 90.7727
2763.3551	 90.7705
2763.8210	 90.7681
2764.2869	 90.7655
2764.7528	 90.7626
2765.2188	 90.7595
2765.6847	 90.7562
2766.1506	 90.7526
2766.6165	 90.7489
2767.0824	 90.7451
2767.5483	 90.7411
2768.0143	 90.7370
2768.4802	 90.7329
2768.9461	 90.7287
2769.4120	 90.7244
2769.8779	 90.7202
2770.3438	 90.7160
2770.8098	 90.7118
2771.2757	 90.7077
2771.7416	 90.7035
2772.2075	 90.6994
2772.6734	 90.6952
2773.1394	 90.6910
2773.6053	 90.6868
2774.0712	 90.6824
2774.5371	 90.6779
2775.0030	 90.6732
2775.4689	 90.6683
2775.9349	 90.6632
2776.4008	 90.6578
2776.8667	 90.6522
2777.3326	 90.6463
2777.7985	 90.6401
2778.2644	 90.6337
2778.7304	 90.6270
2779.1963	 90.6201
2779.6622	 90.6130
2780.1281	 90.6057
2780.5940	 90.5983
2781.0599	 90.5909
2781.5259	 90.5834
2781.9918	 90.5761
2782.4577	 90.5688
2782.9236	 90.5617
2783.3895	 90.5548
2783.8554	 90.5481
2784.3214	 90.5417
2784.7873	 90.5356
2785.2532	 90.5299
2785.7191	 90.5244
2786.1850	 90.5193
2786.6510	 90.5144
2787.1169	 90.5099
2787.5828	 90.5055
2788.0487	 90.5013
2788.5146	 90.4972
2788.9805	 90.4932
2789.4465	 90.4892
2789.9124	 90.4852
2790.3783	 90.4810
2790.8442	 90.4766
2791.3101	 90.4720
2791.7760	 90.4672
2792.2420	 90.4620
2792.7079	 90.4565
2793.1738	 90.4507
2793.6397	 90.4445
2794.1056	 90.4379
2794.5715	 90.4311
2795.0375	 90.4240
2795.5034	 90.4166
2795.9693	 90.4089
2796.4352	 90.4012
2796.9011	 90.3933
2797.3670	 90.3853
2797.8330	 90.3774
2798.2989	 90.3694
2798.7648	 90.3615
2799.2307	 90.3538
2799.6966	 90.3461
2800.1626	 90.3387
2800.6285	 90.3313
2801.0944	 90.3241
2801.5603	 90.3170
2802.0262	 90.3100
2802.4921	 90.3031
2802.9581	 90.2961
2803.4240	 90.2891
2803.8899	 90.2820
2804.3558	 90.2748
2804.8217	 90.2673
2805.2876	 90.2594
2805.7536	 90.2513
2806.2195	 90.2427
2806.6854	 90.2338
2807.1513	 90.2243
2807.6172	 90.2144
2808.0831	 90.2039
2808.5491	 90.1930
2809.0150	 90.1816
2809.4809	 90.1697
2809.9468	 90.1574
2810.4127	 90.1448
2810.8786	 90.1318
2811.3446	 90.1186
2811.8105	 90.1053
2812.2764	 90.0917
2812.7423	 90.0782
2813.2082	 90.0646
2813.6741	 90.0510
2814.1401	 90.0375
2814.6060	 90.0241
2815.0719	 90.0108
2815.5378	 89.9976
2816.0037	 89.9845
2816.4697	 89.9714
2816.9356	 89.9584
2817.4015	 89.9453
2817.8674	 89.9322
2818.3333	 89.9188
2818.7992	 89.9052
2819.2652	 89.8913
2819.7311	 89.8769
2820.1970	 89.8620
2820.6629	 89.8465
2821.1288	 89.8304
2821.5947	 89.8135
2822.0607	 89.7960
2822.5266	 89.7776
2822.9925	 89.7584
2823.4584	 89.7385
2823.9243	 89.7179
2824.3902	 89.6965
2824.8562	 89.6745
2825.3221	 89.6520
2825.7880	 89.6290
2826.2539	 89.6057
2826.7198	 89.5822
2827.1857	 89.5587
2827.6517	 89.5352
2828.1176	 89.5120
2828.5835	 89.4891
2829.0494	 89.4667
2829.5153	 89.4450
2829.9813	 89.4240
2830.4472	 89.4039
2830.9131	 89.3847
2831.3790	 89.3666
2831.8449	 89.3496
2832.3108	 89.3337
2832.7768	 89.3189
2833.2427	 89.3054
2833.7086	 89.2930
2834.1745	 89.2817
2834.6404	 89.2715
2835.1063	 89.2624
2835.5723	 89.2544
2836.0382	 89.2473
2836.5041	 89.2411
2836.9700	 89.2357
2837.4359	 89.2312
2837.9018	 89.2274
2838.3678	 89.2244
2838.8337	 89.2220
2839.2996	 89.2203
2839.7655	 89.2192
2840.2314	 89.2188
2840.6973	 89.2189
2841.1633	 89.2197
2841.6292	 89.2210
2842.0951	 89.2230
2842.5610	 89.2255
2843.0269	 89.2287
2843.4929	 89.2324
2843.9588	 89.2367
2844.4247	 89.2415
2844.8906	 89.2469
2845.3565	 89.2527
2845.8224	 89.2589
2846.2884	 89.2654
2846.7543	 89.2723
2847.2202	 89.2793
2847.6861	 89.2863
2848.1520	 89.2934
2848.6179	 89.3003
2849.0839	 89.3069
2849.5498	 89.3132
2850.0157	 89.3190
2850.4816	 89.3243
2850.9475	 89.3288
2851.4134	 89.3327
2851.8794	 89.3357
2852.3453	 89.3378
2852.8112	 89.3390
2853.2771	 89.3393
2853.7430	 89.3387
2854.2089	 89.3371
2854.6749	 89.3347
2855.1408	 89.3314
2855.6067	 89.3274
2856.0726	 89.3227
2856.5385	 89.3174
2857.0045	 89.3116
2857.4704	 89.3054
2857.9363	 89.2989
2858.4022	 89.2922
2858.8681	 89.2854
2859.3340	 89.2785
2859.8000	 89.2717
2860.2659	 89.2651
2860.7318	 89.2586
2861.1977	 89.2522
2861.6636	 89.2462
2862.1295	 89.2403
2862.5955	 89.2347
2863.0614	 89.2294
2863.5273	 89.2242
2863.9932	 89.2192
2864.4591	 89.2143
2864.9250	 89.2095
2865.3910	 89.2047
2865.8569	 89.1999
2866.3228	 89.1950
2866.7887	 89.1901
2867.2546	 89.1850
2867.7205	 89.1798
2868.1865	 89.1745
2868.6524	 89.1690
2869.1183	 89.1635
2869.5842	 89.1578
2870.0501	 89.1520
2870.5161	 89.1463
2870.9820	 89.1405
2871.4479	 89.1349
2871.9138	 89.1295
2872.3797	 89.1242
2872.8456	 89.1193
2873.3116	 89.1147
2873.7775	 89.1105
2874.2434	 89.1067
2874.7093	 89.1034
2875.1752	 89.1006
2875.6411	 89.0982
2876.1071	 89.0964
2876.5730	 89.0950
2877.0389	 89.0941
2877.5048	 89.0935
2877.9707	 89.0933
2878.4366	 89.0933
2878.9026	 89.0936
2879.3685	 89.0940
2879.8344	 89.0944
2880.3003	 89.0948
2880.7662	 89.0951
2881.2321	 89.0952
2881.6981	 89.0951
2882.1640	 89.0947
2882.6299	 89.0940
2883.0958	 89.0929
2883.5617	 89.0915
2884.0277	 89.0897
2884.4936	 89.0875
2884.9595	 89.0850
2885.4254	 89.0822
2885.8913	 89.0792
2886.3572	 89.0759
2886.8232	 89.0724
2887.2891	 89.0687
2887.7550	 89.0650
2888.2209	 89.0612
2888.6868	 89.0574
2889.1527	 89.0536
2889.6187	 89.0499
2890.0846	 89.0462
2890.5505	 89.0425
2891.0164	 89.0388
2891.4823	 89.0351
2891.9482	 89.0313
2892.4142	 89.0274
2892.8801	 89.0233
2893.3460	 89.0190
2893.8119	 89.0143
2894.2778	 89.0093
2894.7437	 89.0038
2895.2097	 88.9977
2895.6756	 88.9911
2896.1415	 88.9838
2896.6074	 88.9759
2897.0733	 88.9673
2897.5393	 88.9580
2898.0052	 88.9479
2898.4711	 88.9372
2898.9370	 88.9259
2899.4029	 88.9140
2899.8688	 88.9017
2900.3348	 88.8889
2900.8007	 88.8758
2901.2666	 88.8625
2901.7325	 88.8491
2902.1984	 88.8357
2902.6643	 88.8224
2903.1303	 88.8093
2903.5962	 88.7965
2904.0621	 88.7841
2904.5280	 88.7722
2904.9939	 88.7608
2905.4598	 88.7498
2905.9258	 88.7395
2906.3917	 88.7296
2906.8576	 88.7203
2907.3235	 88.7114
2907.7894	 88.7030
2908.2553	 88.6948
2908.7213	 88.6869
2909.1872	 88.6791
2909.6531	 88.6714
2910.1190	 88.6636
2910.5849	 88.6556
2911.0509	 88.6473
2911.5168	 88.6387
2911.9827	 88.6297
2912.4486	 88.6202
2912.9145	 88.6101
2913.3804	 88.5995
2913.8464	 88.5883
2914.3123	 88.5765
2914.7782	 88.5641
2915.2441	 88.5512
2915.7100	 88.5379
2916.1759	 88.5241
2916.6419	 88.5100
2917.1078	 88.4957
2917.5737	 88.4812
2918.0396	 88.4667
2918.5055	 88.4521
2918.9714	 88.4377
2919.4374	 88.4235
2919.9033	 88.4096
2920.3692	 88.3959
2920.8351	 88.3826
2921.3010	 88.3697
2921.7669	 88.3572
2922.2329	 88.3450
2922.6988	 88.3333
2923.1647	 88.3220
2923.6306	 88.3111
2924.0965	 88.3005
2924.5625	 88.2902
2925.0284	 88.2802
2925.4943	 88.2705
2925.9602	 88.2611
2926.4261	 88.2519
2926.8920	 88.2430
2927.3580	 88.2345
2927.8239	 88.2262
2928.2898	 88.2184
2928.7557	 88.2110
2929.2216	 88.2042
2929.6875	 88.1981
2930.1535	 88.1928
2930.6194	 88.1884
2931.0853	 88.1850
2931.5512	 88.1828
2932.0171	 88.1819
2932.4830	 88.1825
2932.9490	 88.1845
2933.4149	 88.1882
2933.8808	 88.1937
2934.3467	 88.2009
2934.8126	 88.2100
2935.2785	 88.2209
2935.7445	 88.2336
2936.2104	 88.2481
2936.6763	 88.2643
2937.1422	 88.2821
2937.6081	 88.3015
2938.0741	 88.3222
2938.5400	 88.3442
2939.0059	 88.3672
2939.4718	 88.3911
2939.9377	 88.4157
2940.4036	 88.4409
2940.8696	 88.4664
2941.3355	 88.4920
2941.8014	 88.5177
2942.2673	 88.5432
2942.7332	 88.5684
2943.1991	 88.5933
2943.6651	 88.6177
2944.1310	 88.6415
2944.5969	 88.6647
2945.0628	 88.6872
2945.5287	 88.7092
2945.9946	 88.7304
2946.4606	 88.7511
2946.9265	 88.7711
2947.3924	 88.7906
2947.8583	 88.8097
2948.3242	 88.8283
2948.7901	 88.8465
2949.2561	 88.8644
2949.7220	 88.8821
2950.1879	 88.8995
2950.6538	 88.9168
2951.1197	 88.9339
2951.5856	 88.9509
2952.0516	 88.9678
2952.5175	 88.9846
2952.9834	 89.0012
2953.4493	 89.0177
2953.9152	 89.0341
2954.3812	 89.0502
2954.8471	 89.0662
2955.3130	 89.0818
2955.7789	 89.0972
2956.2448	 89.1123
2956.7107	 89.1271
2957.1767	 89.1415
2957.6426	 89.1556
2958.1085	 89.1693
2958.5744	 89.1828
2959.0403	 89.1959
2959.5062	 89.2089
2959.9722	 89.2216
2960.4381	 89.2342
2960.9040	 89.2468
2961.3699	 89.2593
2961.8358	 89.2720
2962.3017	 89.2848
2962.7677	 89.2977
2963.2336	 89.3110
2963.6995	 89.3245
2964.1654	 89.3385
2964.6313	 89.3528
2965.0972	 89.3675
2965.5632	 89.3825
2966.0291	 89.3980
2966.4950	 89.4139
2966.9609	 89.4300
2967.4268	 89.4464
2967.8928	 89.4631
2968.3587	 89.4799
2968.8246	 89.4968
2969.2905	 89.5137
2969.7564	 89.5305
2970.2223	 89.5472
2970.6883	 89.5637
2971.1542	 89.5800
2971.6201	 89.5960
2972.0860	 89.6117
2972.5519	 89.6270
2973.0178	 89.6420
2973.4838	 89.6567
2973.9497	 89.6711
2974.4156	 89.6851
2974.8815	 89.6990
2975.3474	 89.7126
2975.8133	 89.7260
2976.2793	 89.7393
2976.7452	 89.7526
2977.2111	 89.7658
2977.6770	 89.7790
2978.1429	 89.7922
2978.6088	 89.8054
2979.0748	 89.8187
2979.5407	 89.8319
2980.0066	 89.8450
2980.4725	 89.8580
2980.9384	 89.8708
2981.4044	 89.8833
2981.8703	 89.8954
2982.3362	 89.9069
2982.8021	 89.9177
2983.2680	 89.9278
2983.7339	 89.9369
2984.1999	 89.9450
2984.6658	 89.9518
2985.1317	 89.9574
2985.5976	 89.9616
2986.0635	 89.9642
2986.5294	 89.9654
2986.9954	 89.9650
2987.4613	 89.9630
2987.9272	 89.9595
2988.3931	 89.9545
2988.8590	 89.9481
2989.3249	 89.9405
2989.7909	 89.9317
2990.2568	 89.9219
2990.7227	 89.9113
2991.1886	 89.9002
2991.6545	 89.8886
2992.1204	 89.8769
2992.5864	 89.8653
2993.0523	 89.8539
2993.5182	 89.8430
2993.9841	 89.8328
2994.4500	 89.8234
2994.9160	 89.8150
2995.3819	 89.8077
2995.8478	 89.8017
2996.3137	 89.7969
2996.7796	 89.7934
2997.2455	 89.7913
2997.7115	 89.7905
2998.1774	 89.7909
2998.6433	 89.7925
2999.1092	 89.7952
2999.5751	 89.7988
3000.0410	 89.8033
3000.5070	 89.8085
3000.9729	 89.8142
3001.4388	 89.8204
3001.9047	 89.8268
3002.3706	 89.8333
3002.8365	 89.8398
3003.3025	 89.8462
3003.7684	 89.8523
3004.2343	 89.8582
3004.7002	 89.8637
3005.1661	 89.8688
3005.6320	 89.8735
3006.0980	 89.8777
3006.5639	 89.8815
3007.0298	 89.8848
3007.4957	 89.8877
3007.9616	 89.8903
3008.4276	 89.8926
3008.8935	 89.8946
3009.3594	 89.8963
3009.8253	 89.8979
3010.2912	 89.8993
3010.7571	 89.9007
3011.2231	 89.9019
3011.6890	 89.9031
3012.1549	 89.9043
3012.6208	 89.9054
3013.0867	 89.9064
3013.5526	 89.9073
3014.0186	 89.9081
3014.4845	 89.9088
3014.9504	 89.9093
3015.4163	 89.9095
3015.8822	 89.9095
3016.3481	 89.9092
3016.8141	 89.9086
3017.2800	 89.9076
3017.7459	 89.9063
3018.2118	 89.9046
3018.6777	 89.9026
3019.1436	 89.9003
3019.6096	 89.8976
3020.0755	 89.8947
3020.5414	 89.8916
3021.0073	 89.8883
3021.4732	 89.8849
3021.9392	 89.8815
3022.4051	 89.8781
3022.8710	 89.8749
3023.3369	 89.8718
3023.8028	 89.8689
3024.2687	 89.8664
3024.7347	 89.8642
3025.2006	 89.8623
3025.6665	 89.8609
3026.1324	 89.8598
3026.5983	 89.8591
3027.0642	 89.8589
3027.5302	 89.8589
3027.9961	 89.8593
3028.4620	 89.8599
3028.9279	 89.8608
3029.3938	 89.8618
3029.8597	 89.8629
3030.3257	 89.8640
3030.7916	 89.8650
3031.2575	 89.8659
3031.7234	 89.8667
3032.1893	 89.8672
3032.6552	 89.8675
3033.1212	 89.8675
3033.5871	 89.8672
3034.0530	 89.8666
3034.5189	 89.8658
3034.9848	 89.8646
3035.4508	 89.8632
3035.9167	 89.8616
3036.3826	 89.8598
3036.8485	 89.8579
3037.3144	 89.8559
3037.7803	 89.8539
3038.2463	 89.8519
3038.7122	 89.8500
3039.1781	 89.8482
3039.6440	 89.8465
3040.1099	 89.8449
3040.5758	 89.8435
3041.0418	 89.8423
3041.5077	 89.8412
3041.9736	 89.8403
3042.4395	 89.8394
3042.9054	 89.8387
3043.3713	 89.8380
3043.8373	 89.8372
3044.3032	 89.8364
3044.7691	 89.8356
3045.2350	 89.8346
3045.7009	 89.8334
3046.1668	 89.8320
3046.6328	 89.8304
3047.0987	 89.8286
3047.5646	 89.8265
3048.0305	 89.8242
3048.4964	 89.8217
3048.9624	 89.8190
3049.4283	 89.8162
3049.8942	 89.8133
3050.3601	 89.8103
3050.8260	 89.8074
3051.2919	 89.8045
3051.7579	 89.8017
3052.2238	 89.7992
3052.6897	 89.7968
3053.1556	 89.7947
3053.6215	 89.7929
3054.0874	 89.7914
3054.5534	 89.7902
3055.0193	 89.7894
3055.4852	 89.7888
3055.9511	 89.7885
3056.4170	 89.7883
3056.8829	 89.7884
3057.3489	 89.7885
3057.8148	 89.7886
3058.2807	 89.7886
3058.7466	 89.7884
3059.2125	 89.7880
3059.6784	 89.7873
3060.1444	 89.7862
3060.6103	 89.7846
3061.0762	 89.7825
3061.5421	 89.7799
3062.0080	 89.7767
3062.4740	 89.7729
3062.9399	 89.7687
3063.4058	 89.7639
3063.8717	 89.7587
3064.3376	 89.7532
3064.8035	 89.7474
3065.2695	 89.7413
3065.7354	 89.7353
3066.2013	 89.7292
3066.6672	 89.7233
3067.1331	 89.7177
3067.5990	 89.7124
3068.0650	 89.7076
3068.5309	 89.7033
3068.9968	 89.6997
3069.4627	 89.6968
3069.9286	 89.6946
3070.3945	 89.6931
3070.8605	 89.6924
3071.3264	 89.6923
3071.7923	 89.6930
3072.2582	 89.6942
3072.7241	 89.6960
3073.1900	 89.6982
3073.6560	 89.7007
3074.1219	 89.7035
3074.5878	 89.7063
3075.0537	 89.7092
3075.5196	 89.7119
3075.9856	 89.7144
3076.4515	 89.7166
3076.9174	 89.7184
3077.3833	 89.7197
3077.8492	 89.7205
3078.3151	 89.7208
3078.7811	 89.7204
3079.2470	 89.7195
3079.7129	 89.7181
3080.1788	 89.7162
3080.6447	 89.7138
3081.1106	 89.7110
3081.5766	 89.7079
3082.0425	 89.7045
3082.5084	 89.7009
3082.9743	 89.6973
3083.4402	 89.6937
3083.9061	 89.6901
3084.3721	 89.6866
3084.8380	 89.6833
3085.3039	 89.6802
3085.7698	 89.6773
3086.2357	 89.6747
3086.7016	 89.6723
3087.1676	 89.6701
3087.6335	 89.6682
3088.0994	 89.6664
3088.5653	 89.6647
3089.0312	 89.6632
3089.4971	 89.6616
3089.9631	 89.6600
3090.4290	 89.6584
3090.8949	 89.6566
3091.3608	 89.6546
3091.8267	 89.6525
3092.2927	 89.6501
3092.7586	 89.6474
3093.2245	 89.6445
3093.6904	 89.6414
3094.1563	 89.6380
3094.6222	 89.6344
3095.0882	 89.6306
3095.5541	 89.6267
3096.0200	 89.6226
3096.4859	 89.6185
3096.9518	 89.6143
3097.4177	 89.6102
3097.8837	 89.6060
3098.3496	 89.6019
3098.8155	 89.5979
3099.2814	 89.5939
3099.7473	 89.5900
3100.2132	 89.5861
3100.6792	 89.5822
3101.1451	 89.5783
3101.6110	 89.5743
3102.0769	 89.5702
3102.5428	 89.5659
3103.0087	 89.5613
3103.4747	 89.5564
3103.9406	 89.5512
3104.4065	 89.5455
3104.8724	 89.5394
3105.3383	 89.5328
3105.8043	 89.5257
3106.2702	 89.5182
3106.7361	 89.5103
3107.2020	 89.5019
3107.6679	 89.4932
3108.1338	 89.4842
3108.5998	 89.4751
3109.0657	 89.4660
3109.5316	 89.4569
3109.9975	 89.4480
3110.4634	 89.4394
3110.9293	 89.4313
3111.3953	 89.4238
3111.8612	 89.4170
3112.3271	 89.4110
3112.7930	 89.4059
3113.2589	 89.4017
3113.7248	 89.3985
3114.1908	 89.3963
3114.6567	 89.3951
3115.1226	 89.3949
3115.5885	 89.3956
3116.0544	 89.3970
3116.5203	 89.3991
3116.9863	 89.4017
3117.4522	 89.4047
3117.9181	 89.4079
3118.3840	 89.4110
3118.8499	 89.4140
3119.3159	 89.4167
3119.7818	 89.4188
3120.2477	 89.4202
3120.7136	 89.4208
3121.1795	 89.4205
3121.6454	 89.4191
3122.1114	 89.4166
3122.5773	 89.4130
3123.0432	 89.4082
3123.5091	 89.4024
3123.9750	 89.3955
3124.4409	 89.3876
3124.9069	 89.3788
3125.3728	 89.3694
3125.8387	 89.3593
3126.3046	 89.3488
3126.7705	 89.3381
3127.2364	 89.3273
3127.7024	 89.3165
3128.1683	 89.3060
3128.6342	 89.2959
3129.1001	 89.2862
3129.5660	 89.2771
3130.0319	 89.2688
3130.4979	 89.2611
3130.9638	 89.2543
3131.4297	 89.2482
3131.8956	 89.2429
3132.3615	 89.2382
3132.8275	 89.2342
3133.2934	 89.2308
3133.7593	 89.2277
3134.2252	 89.2251
3134.6911	 89.2226
3135.1570	 89.2202
3135.6230	 89.2178
3136.0889	 89.2153
3136.5548	 89.2126
3137.0207	 89.2095
3137.4866	 89.2061
3137.9525	 89.2023
3138.4185	 89.1981
3138.8844	 89.1935
3139.3503	 89.1884
3139.8162	 89.1830
3140.2821	 89.1773
3140.7480	 89.1714
3141.2140	 89.1653
3141.6799	 89.1591
3142.1458	 89.1530
3142.6117	 89.1469
3143.0776	 89.1411
3143.5435	 89.1355
3144.0095	 89.1303
3144.4754	 89.1254
3144.9413	 89.1210
3145.4072	 89.1169
3145.8731	 89.1132
3146.3391	 89.1099
3146.8050	 89.1069
3147.2709	 89.1042
3147.7368	 89.1016
3148.2027	 89.0990
3148.6686	 89.0963
3149.1346	 89.0935
3149.6005	 89.0904
3150.0664	 89.0869
3150.5323	 89.0829
3150.9982	 89.0783
3151.4641	 89.0730
3151.9301	 89.0670
3152.3960	 89.0604
3152.8619	 89.0529
3153.3278	 89.0448
3153.7937	 89.0360
3154.2596	 89.0266
3154.7256	 89.0167
3155.1915	 89.0064
3155.6574	 88.9958
3156.1233	 88.9852
3156.5892	 88.9745
3157.0551	 88.9640
3157.5211	 88.9539
3157.9870	 88.9442
3158.4529	 88.9351
3158.9188	 88.9267
3159.3847	 88.9192
3159.8507	 88.9125
3160.3166	 88.9068
3160.7825	 88.9020
3161.2484	 88.8982
3161.7143	 88.8953
3162.1802	 88.8932
3162.6462	 88.8919
3163.1121	 88.8912
3163.5780	 88.8911
3164.0439	 88.8914
3164.5098	 88.8919
3164.9757	 88.8925
3165.4417	 88.8930
3165.9076	 88.8934
3166.3735	 88.8934
3166.8394	 88.8929
3167.3053	 88.8919
3167.7712	 88.8902
3168.2372	 88.8878
3168.7031	 88.8846
3169.1690	 88.8807
3169.6349	 88.8760
3170.1008	 88.8706
3170.5667	 88.8645
3171.0327	 88.8577
3171.4986	 88.8505
3171.9645	 88.8428
3172.4304	 88.8348
3172.8963	 88.8266
3173.3623	 88.8183
3173.8282	 88.8100
3174.2941	 88.8018
3174.7600	 88.7938
3175.2259	 88.7861
3175.6918	 88.7787
3176.1578	 88.7716
3176.6237	 88.7649
3177.0896	 88.7586
3177.5555	 88.7526
3178.0214	 88.7470
3178.4873	 88.7416
3178.9533	 88.7365
3179.4192	 88.7315
3179.8851	 88.7267
3180.3510	 88.7219
3180.8169	 88.7170
3181.2828	 88.7121
3181.7488	 88.7070
3182.2147	 88.7018
3182.6806	 88.6963
3183.1465	 88.6906
3183.6124	 88.6848
3184.0783	 88.6787
3184.5443	 88.6725
3185.0102	 88.6662
3185.4761	 88.6598
3185.9420	 88.6535
3186.4079	 88.6473
3186.8739	 88.6412
3187.3398	 88.6355
3187.8057	 88.6301
3188.2716	 88.6251
3188.7375	 88.6206
3189.2034	 88.6166
3189.6694	 88.6132
3190.1353	 88.6104
3190.6012	 88.6082
3191.0671	 88.6065
3191.5330	 88.6054
3191.9989	 88.6049
3192.4649	 88.6047
3192.9308	 88.6050
3193.3967	 88.6054
3193.8626	 88.6061
3194.3285	 88.6069
3194.7944	 88.6076
3195.2604	 88.6083
3195.7263	 88.6087
3196.1922	 88.6089
3196.6581	 88.6088
3197.1240	 88.6082
3197.5899	 88.6073
3198.0559	 88.6059
3198.5218	 88.6041
3198.9877	 88.6018
3199.4536	 88.5992
3199.9195	 88.5963
3200.3855	 88.5931
3200.8514	 88.5897
3201.3173	 88.5862
3201.7832	 88.5827
3202.2491	 88.5793
3202.7150	 88.5761
3203.1810	 88.5731
3203.6469	 88.5704
3204.1128	 88.5681
3204.5787	 88.5662
3205.0446	 88.5647
3205.5105	 88.5638
3205.9765	 88.5633
3206.4424	 88.5633
3206.9083	 88.5636
3207.3742	 88.5644
3207.8401	 88.5655
3208.3060	 88.5668
3208.7720	 88.5684
3209.2379	 88.5700
3209.7038	 88.5717
3210.1697	 88.5733
3210.6356	 88.5749
3211.1015	 88.5762
3211.5675	 88.5774
3212.0334	 88.5783
3212.4993	 88.5790
3212.9652	 88.5794
3213.4311	 88.5796
3213.8971	 88.5795
3214.3630	 88.5793
3214.8289	 88.5789
3215.2948	 88.5784
3215.7607	 88.5778
3216.2266	 88.5773
3216.6926	 88.5769
3217.1585	 88.5767
3217.6244	 88.5767
3218.0903	 88.5769
3218.5562	 88.5774
3219.0221	 88.5782
3219.4881	 88.5793
3219.9540	 88.5808
3220.4199	 88.5825
3220.8858	 88.5845
3221.3517	 88.5867
3221.8176	 88.5890
3222.2836	 88.5915
3222.7495	 88.5939
3223.2154	 88.5963
3223.6813	 88.5986
3224.1472	 88.6007
3224.6131	 88.6025
3225.0791	 88.6041
3225.5450	 88.6053
3226.0109	 88.6062
3226.4768	 88.6068
3226.9427	 88.6071
3227.4086	 88.6072
3227.8746	 88.6070
3228.3405	 88.6067
3228.8064	 88.6063
3229.2723	 88.6061
3229.7382	 88.6059
3230.2042	 88.6061
3230.6701	 88.6066
3231.1360	 88.6076
3231.6019	 88.6092
3232.0678	 88.6114
3232.5337	 88.6144
3232.9997	 88.6181
3233.4656	 88.6226
3233.9315	 88.6278
3234.3974	 88.6338
3234.8633	 88.6405
3235.3292	 88.6477
3235.7952	 88.6554
3236.2611	 88.6635
3236.7270	 88.6717
3237.1929	 88.6800
3237.6588	 88.6881
3238.1247	 88.6959
3238.5907	 88.7032
3239.0566	 88.7099
3239.5225	 88.7157
3239.9884	 88.7206
3240.4543	 88.7245
3240.9202	 88.7272
3241.3862	 88.7288
3241.8521	 88.7292
3242.3180	 88.7284
3242.7839	 88.7264
3243.2498	 88.7235
3243.7158	 88.7195
3244.1817	 88.7148
3244.6476	 88.7095
3245.1135	 88.7037
3245.5794	 88.6977
3246.0453	 88.6915
3246.5113	 88.6855
3246.9772	 88.6799
3247.4431	 88.6747
3247.9090	 88.6703
3248.3749	 88.6666
3248.8408	 88.6639
3249.3068	 88.6623
3249.7727	 88.6617
3250.2386	 88.6622
3250.7045	 88.6638
3251.1704	 88.6664
3251.6363	 88.6700
3252.1023	 88.6744
3252.5682	 88.6795
3253.0341	 88.6853
3253.5000	 88.6914
3253.9659	 88.6977
3254.4318	 88.7041
3254.8978	 88.7104
3255.3637	 88.7165
3255.8296	 88.7221
3256.2955	 88.7272
3256.7614	 88.7317
3257.2274	 88.7356
3257.6933	 88.7387
3258.1592	 88.7410
3258.6251	 88.7427
3259.0910	 88.7437
3259.5569	 88.7441
3260.0229	 88.7440
3260.4888	 88.7435
3260.9547	 88.7427
3261.4206	 88.7418
3261.8865	 88.7409
3262.3524	 88.7402
3262.8184	 88.7398
3263.2843	 88.7397
3263.7502	 88.7402
3264.2161	 88.7412
3264.6820	 88.7428
3265.1479	 88.7450
3265.6139	 88.7479
3266.0798	 88.7514
3266.5457	 88.7554
3267.0116	 88.7599
3267.4775	 88.7648
3267.9434	 88.7699
3268.4094	 88.7751
3268.8753	 88.7802
3269.3412	 88.7852
3269.8071	 88.7899
3270.2730	 88.7941
3270.7390	 88.7977
3271.2049	 88.8006
3271.6708	 88.8027
3272.1367	 88.8041
3272.6026	 88.8045
3273.0685	 88.8041
3273.5345	 88.8029
3274.0004	 88.8009
3274.4663	 88.7981
3274.9322	 88.7948
3275.3981	 88.7910
3275.8640	 88.7868
3276.3300	 88.7824
3276.7959	 88.7780
3277.2618	 88.7736
3277.7277	 88.7695
3278.1936	 88.7658
3278.6595	 88.7625
3279.1255	 88.7598
3279.5914	 88.7578
3280.0573	 88.7565
3280.5232	 88.7560
3280.9891	 88.7562
3281.4550	 88.7571
3281.9210	 88.7587
3282.3869	 88.7609
3282.8528	 88.7636
3283.3187	 88.7667
3283.7846	 88.7701
3284.2506	 88.7737
3284.7165	 88.7772
3285.1824	 88.7807
3285.6483	 88.7840
3286.1142	 88.7870
3286.5801	 88.7896
3287.0461	 88.7918
3287.5120	 88.7934
3287.9779	 88.7945
3288.4438	 88.7951
3288.9097	 88.7951
3289.3756	 88.7947
3289.8416	 88.7939
3290.3075	 88.7928
3290.7734	 88.7914
3291.2393	 88.7899
3291.7052	 88.7885
3292.1711	 88.7871
3292.6371	 88.7860
3293.1030	 88.7852
3293.5689	 88.7849
3294.0348	 88.7850
3294.5007	 88.7857
3294.9666	 88.7870
3295.4326	 88.7890
3295.8985	 88.7916
3296.3644	 88.7948
3296.8303	 88.7985
3297.2962	 88.8028
3297.7622	 88.8075
3298.2281	 88.8125
3298.6940	 88.8177
3299.1599	 88.8231
3299.6258	 88.8285
3300.0917	 88.8338
3300.5577	 88.8390
3301.0236	 88.8439
3301.4895	 88.8485
3301.9554	 88.8527
3302.4213	 88.8566
3302.8872	 88.8601
3303.3532	 88.8631
3303.8191	 88.8658
3304.2850	 88.8681
3304.7509	 88.8702
3305.2168	 88.8721
3305.6827	 88.8738
3306.1487	 88.8756
3306.6146	 88.8774
3307.0805	 88.8793
3307.5464	 88.8814
3308.0123	 88.8839
3308.4782	 88.8867
3308.9442	 88.8899
3309.4101	 88.8935
3309.8760	 88.8975
3310.3419	 88.9020
3310.8078	 88.9068
3311.2738	 88.9119
3311.7397	 88.9173
3312.2056	 88.9229
3312.6715	 88.9285
3313.1374	 88.9341
3313.6033	 88.9395
3314.0693	 88.9446
3314.5352	 88.9494
3315.0011	 88.9538
3315.4670	 88.9576
3315.9329	 88.9608
3316.3988	 88.9633
3316.8648	 88.9652
3317.3307	 88.9664
3317.7966	 88.9668
3318.2625	 88.9667
3318.7284	 88.9659
3319.1943	 88.9646
3319.6603	 88.9629
3320.1262	 88.9608
3320.5921	 88.9585
3321.0580	 88.9561
3321.5239	 88.9536
3321.9898	 88.9513
3322.4558	 88.9491
3322.9217	 88.9472
3323.3876	 88.9456
3323.8535	 88.9444
3324.3194	 88.9437
3324.7854	 88.9433
3325.2513	 88.9434
3325.7172	 88.9439
3326.1831	 88.9446
3326.6490	 88.9456
3327.1149	 88.9467
3327.5809	 88.9479
3328.0468	 88.9491
3328.5127	 88.9500
3328.9786	 88.9507
3329.4445	 88.9510
3329.9104	 88.9508
3330.3764	 88.9502
3330.8423	 88.9489
3331.3082	 88.9471
3331.7741	 88.9446
3332.2400	 88.9416
3332.7059	 88.9380
3333.1719	 88.9340
3333.6378	 88.9297
3334.1037	 88.9252
3334.5696	 88.9206
3335.0355	 88.9162
3335.5014	 88.9120
3335.9674	 88.9082
3336.4333	 88.9051
3336.8992	 88.9027
3337.3651	 88.9013
3337.8310	 88.9008
3338.2970	 88.9016
3338.7629	 88.9035
3339.2288	 88.9067
3339.6947	 88.9111
3340.1606	 88.9168
3340.6265	 88.9236
3341.0925	 88.9315
3341.5584	 88.9403
3342.0243	 88.9498
3342.4902	 88.9599
3342.9561	 88.9703
3343.4220	 88.9809
3343.8880	 88.9914
3344.3539	 89.0016
3344.8198	 89.0113
3345.2857	 89.0202
3345.7516	 89.0283
3346.2175	 89.0352
3346.6835	 89.0409
3347.1494	 89.0453
3347.6153	 89.0484
3348.0812	 89.0499
3348.5471	 89.0501
3349.0130	 89.0489
3349.4790	 89.0463
3349.9449	 89.0426
3350.4108	 89.0377
3350.8767	 89.0319
3351.3426	 89.0252
3351.8086	 89.0180
3352.2745	 89.0103
3352.7404	 89.0024
3353.2063	 88.9945
3353.6722	 88.9866
3354.1381	 88.9790
3354.6041	 88.9719
3355.0700	 88.9652
3355.5359	 88.9592
3356.0018	 88.9540
3356.4677	 88.9494
3356.9336	 88.9457
3357.3996	 88.9427
3357.8655	 88.9405
3358.3314	 88.9391
3358.7973	 88.9384
3359.2632	 88.9382
3359.7291	 88.9387
3360.1951	 88.9397
3360.6610	 88.9412
3361.1269	 88.9430
3361.5928	 88.9452
3362.0587	 88.9477
3362.5246	 88.9506
3362.9906	 88.9537
3363.4565	 88.9571
3363.9224	 88.9609
3364.3883	 88.9650
3364.8542	 88.9695
3365.3201	 88.9745
3365.7861	 88.9800
3366.2520	 88.9860
3366.7179	 88.9927
3367.1838	 89.0000
3367.6497	 89.0080
3368.1157	 89.0168
3368.5816	 89.0262
3369.0475	 89.0363
3369.5134	 89.0471
3369.9793	 89.0585
3370.4452	 89.0703
3370.9112	 89.0825
3371.3771	 89.0950
3371.8430	 89.1076
3372.3089	 89.1202
3372.7748	 89.1326
3373.2407	 89.1446
3373.7067	 89.1560
3374.1726	 89.1668
3374.6385	 89.1768
3375.1044	 89.1857
3375.5703	 89.1936
3376.0362	 89.2003
3376.5022	 89.2058
3376.9681	 89.2101
3377.4340	 89.2130
3377.8999	 89.2148
3378.3658	 89.2153
3378.8317	 89.2147
3379.2977	 89.2131
3379.7636	 89.2107
3380.2295	 89.2075
3380.6954	 89.2037
3381.1613	 89.1996
3381.6273	 89.1952
3382.0932	 89.1908
3382.5591	 89.1866
3383.0250	 89.1826
3383.4909	 89.1790
3383.9568	 89.1760
3384.4228	 89.1736
3384.8887	 89.1720
3385.3546	 89.1711
3385.8205	 89.1710
3386.2864	 89.1717
3386.7523	 89.1732
3387.2183	 89.1753
3387.6842	 89.1781
3388.1501	 89.1814
3388.6160	 89.1850
3389.0819	 89.1890
3389.5478	 89.1931
3390.0138	 89.1973
3390.4797	 89.2014
3390.9456	 89.2054
3391.4115	 89.2092
3391.8774	 89.2126
3392.3433	 89.2157
3392.8093	 89.2184
3393.2752	 89.2207
3393.7411	 89.2226
3394.2070	 89.2242
3394.6729	 89.2255
3395.1389	 89.2266
3395.6048	 89.2276
3396.0707	 89.2286
3396.5366	 89.2297
3397.0025	 89.2310
3397.4684	 89.2325
3397.9344	 89.2345
3398.4003	 89.2369
3398.8662	 89.2398
3399.3321	 89.2433
3399.7980	 89.2474
3400.2639	 89.2521
3400.7299	 89.2575
3401.1958	 89.2634
3401.6617	 89.2699
3402.1276	 89.2768
3402.5935	 89.2842
3403.0594	 89.2919
3403.5254	 89.2998
3403.9913	 89.3079
3404.4572	 89.3160
3404.9231	 89.3241
3405.3890	 89.3321
3405.8549	 89.3400
3406.3209	 89.3477
3406.7868	 89.3551
3407.2527	 89.3622
3407.7186	 89.3692
3408.1845	 89.3759
3408.6505	 89.3823
3409.1164	 89.3887
3409.5823	 89.3949
3410.0482	 89.4012
3410.5141	 89.4074
3410.9800	 89.4138
3411.4460	 89.4204
3411.9119	 89.4272
3412.3778	 89.4343
3412.8437	 89.4417
3413.3096	 89.4495
3413.7755	 89.4576
3414.2415	 89.4661
3414.7074	 89.4749
3415.1733	 89.4839
3415.6392	 89.4932
3416.1051	 89.5025
3416.5710	 89.5118
3417.0370	 89.5210
3417.5029	 89.5299
3417.9688	 89.5385
3418.4347	 89.5466
3418.9006	 89.5542
3419.3665	 89.5610
3419.8325	 89.5672
3420.2984	 89.5725
3420.7643	 89.5770
3421.2302	 89.5807
3421.6961	 89.5835
3422.1621	 89.5856
3422.6280	 89.5871
3423.0939	 89.5879
3423.5598	 89.5883
3424.0257	 89.5884
3424.4916	 89.5884
3424.9576	 89.5884
3425.4235	 89.5885
3425.8894	 89.5891
3426.3553	 89.5902
3426.8212	 89.5920
3427.2871	 89.5946
3427.7531	 89.5982
3428.2190	 89.6028
3428.6849	 89.6086
3429.1508	 89.6155
3429.6167	 89.6235
3430.0826	 89.6325
3430.5486	 89.6427
3431.0145	 89.6537
3431.4804	 89.6655
3431.9463	 89.6780
3432.4122	 89.6910
3432.8781	 89.7043
3433.3441	 89.7177
3433.8100	 89.7311
3434.2759	 89.7442
3434.7418	 89.7569
3435.2077	 89.7691
3435.6737	 89.7806
3436.1396	 89.7914
3436.6055	 89.8013
3437.0714	 89.8103
3437.5373	 89.8185
3438.0032	 89.8258
3438.4692	 89.8323
3438.9351	 89.8380
3439.4010	 89.8431
3439.8669	 89.8476
3440.3328	 89.8518
3440.7987	 89.8558
3441.2647	 89.8597
3441.7306	 89.8637
3442.1965	 89.8678
3442.6624	 89.8723
3443.1283	 89.8773
3443.5942	 89.8828
3444.0602	 89.8889
3444.5261	 89.8956
3444.9920	 89.9029
3445.4579	 89.9109
3445.9238	 89.9194
3446.3897	 89.9283
3446.8557	 89.9377
3447.3216	 89.9472
3447.7875	 89.9569
3448.2534	 89.9665
3448.7193	 89.9759
3449.1853	 89.9850
3449.6512	 89.9936
3450.1171	 90.0017
3450.5830	 90.0090
3451.0489	 90.0156
3451.5148	 90.0213
3451.9808	 90.0262
3452.4467	 90.0303
3452.9126	 90.0336
3453.3785	 90.0362
3453.8444	 90.0381
3454.3103	 90.0394
3454.7763	 90.0404
3455.2422	 90.0411
3455.7081	 90.0417
3456.1740	 90.0423
3456.6399	 90.0431
3457.1058	 90.0443
3457.5718	 90.0459
3458.0377	 90.0482
3458.5036	 90.0512
3458.9695	 90.0550
3459.4354	 90.0597
3459.9013	 90.0652
3460.3673	 90.0715
3460.8332	 90.0787
3461.2991	 90.0866
3461.7650	 90.0952
3462.2309	 90.1044
3462.6969	 90.1139
3463.1628	 90.1238
3463.6287	 90.1338
3464.0946	 90.1438
3464.5605	 90.1536
3465.0264	 90.1632
3465.4924	 90.1724
3465.9583	 90.1812
3466.4242	 90.1894
3466.8901	 90.1970
3467.3560	 90.2041
3467.8219	 90.2106
3468.2879	 90.2166
3468.7538	 90.2221
3469.2197	 90.2272
3469.6856	 90.2321
3470.1515	 90.2369
3470.6174	 90.2417
3471.0834	 90.2466
3471.5493	 90.2519
3472.0152	 90.2576
3472.4811	 90.2638
3472.9470	 90.2707
3473.4129	 90.2784
3473.8789	 90.2869
3474.3448	 90.2962
3474.8107	 90.3064
3475.2766	 90.3175
3475.7425	 90.3294
3476.2085	 90.3421
3476.6744	 90.3554
3477.1403	 90.3691
3477.6062	 90.3833
3478.0721	 90.3977
3478.5380	 90.4122
3479.0040	 90.4265
3479.4699	 90.4406
3479.9358	 90.4543
3480.4017	 90.4675
3480.8676	 90.4800
3481.3335	 90.4918
3481.7995	 90.5028
3482.2654	 90.5130
3482.7313	 90.5223
3483.1972	 90.5308
3483.6631	 90.5385
3484.1290	 90.5456
3484.5950	 90.5520
3485.0609	 90.5579
3485.5268	 90.5635
3485.9927	 90.5688
3486.4586	 90.5741
3486.9245	 90.5794
3487.3905	 90.5849
3487.8564	 90.5907
3488.3223	 90.5970
3488.7882	 90.6037
3489.2541	 90.6111
3489.7201	 90.6190
3490.1860	 90.6276
3490.6519	 90.6368
3491.1178	 90.6467
3491.5837	 90.6570
3492.0496	 90.6679
3492.5156	 90.6791
3492.9815	 90.6906
3493.4474	 90.7024
3493.9133	 90.7141
3494.3792	 90.7259
3494.8451	 90.7375
3495.3111	 90.7489
3495.7770	 90.7600
3496.2429	 90.7708
3496.7088	 90.7811
3497.1747	 90.7911
3497.6406	 90.8006
3498.1066	 90.8098
3498.5725	 90.8187
3499.0384	 90.8274
3499.5043	 90.8359
3499.9702	 90.8444
3500.4361	 90.8529
3500.9021	 90.8617
3501.3680	 90.8709
3501.8339	 90.8805
3502.2998	 90.8908
3502.7657	 90.9017
3503.2316	 90.9135
3503.6976	 90.9262
3504.1635	 90.9398
3504.6294	 90.9543
3505.0953	 90.9698
3505.5612	 90.9862
3506.0272	 91.0035
3506.4931	 91.0215
3506.9590	 91.0403
3507.4249	 91.0596
3507.8908	 91.0793
3508.3567	 91.0994
3508.8227	 91.1196
3509.2886	 91.1398
3509.7545	 91.1598
3510.2204	 91.1797
3510.6863	 91.1991
3511.1522	 91.2181
3511.6182	 91.2366
3512.0841	 91.2544
3512.5500	 91.2715
3513.0159	 91.2880
3513.4818	 91.3037
3513.9477	 91.3188
3514.4137	 91.3332
3514.8796	 91.3469
3515.3455	 91.3601
3515.8114	 91.3727
3516.2773	 91.3849
3516.7432	 91.3966
3517.2092	 91.4081
3517.6751	 91.4193
3518.1410	 91.4303
3518.6069	 91.4412
3519.0728	 91.4521
3519.5388	 91.4629
3520.0047	 91.4738
3520.4706	 91.4847
3520.9365	 91.4958
3521.4024	 91.5070
3521.8683	 91.5183
3522.3343	 91.5299
3522.8002	 91.5416
3523.2661	 91.5535
3523.7320	 91.5656
3524.1979	 91.5779
3524.6638	 91.5905
3525.1298	 91.6034
3525.5957	 91.6166
3526.0616	 91.6302
3526.5275	 91.6443
3526.9934	 91.6588
3527.4593	 91.6738
3527.9253	 91.6894
3528.3912	 91.7057
3528.8571	 91.7226
3529.3230	 91.7403
3529.7889	 91.7588
3530.2548	 91.7780
3530.7208	 91.7981
3531.1867	 91.8190
3531.6526	 91.8406
3532.1185	 91.8630
3532.5844	 91.8860
3533.0504	 91.9096
3533.5163	 91.9336
3533.9822	 91.9580
3534.4481	 91.9826
3534.9140	 92.0073
3535.3799	 92.0318
3535.8459	 92.0561
3536.3118	 92.0799
3536.7777	 92.1032
3537.2436	 92.1257
3537.7095	 92.1473
3538.1754	 92.1680
3538.6414	 92.1875
3539.1073	 92.2059
3539.5732	 92.2231
3540.0391	 92.2391
3540.5050	 92.2539
3540.9709	 92.2675
3541.4369	 92.2802
3541.9028	 92.2919
3542.3687	 92.3029
3542.8346	 92.3133
3543.3005	 92.3235
3543.7664	 92.3335
3544.2324	 92.3437
3544.6983	 92.3542
3545.1642	 92.3654
3545.6301	 92.3775
3546.0960	 92.3906
3546.5620	 92.4049
3547.0279	 92.4206
3547.4938	 92.4378
3547.9597	 92.4564
3548.4256	 92.4764
3548.8915	 92.4979
3549.3575	 92.5207
3549.8234	 92.5447
3550.2893	 92.5696
3550.7552	 92.5952
3551.2211	 92.6214
3551.6870	 92.6478
3552.1530	 92.6741
3552.6189	 92.7001
3553.0848	 92.7255
3553.5507	 92.7500
3554.0166	 92.7733
3554.4825	 92.7953
3554.9485	 92.8157
3555.4144	 92.8343
3555.8803	 92.8510
3556.3462	 92.8657
3556.8121	 92.8782
3557.2780	 92.8886
3557.7440	 92.8968
3558.2099	 92.9030
3558.6758	 92.9070
3559.1417	 92.9091
3559.6076	 92.9095
3560.0736	 92.9083
3560.5395	 92.9057
3561.0054	 92.9021
3561.4713	 92.8976
3561.9372	 92.8927
3562.4031	 92.8876
3562.8691	 92.8827
3563.3350	 92.8783
3563.8009	 92.8748
3564.2668	 92.8723
3564.7327	 92.8713
3565.1986	 92.8719
3565.6646	 92.8744
3566.1305	 92.8789
3566.5964	 92.8854
3567.0623	 92.8940
3567.5282	 92.9048
3567.9941	 92.9175
3568.4601	 92.9322
3568.9260	 92.9487
3569.3919	 92.9668
3569.8578	 92.9864
3570.3237	 93.0072
3570.7896	 93.0290
3571.2556	 93.0517
3571.7215	 93.0750
3572.1874	 93.0989
3572.6533	 93.1230
3573.1192	 93.1473
3573.5852	 93.1716
3574.0511	 93.1959
3574.5170	 93.2199
3574.9829	 93.2437
3575.4488	 93.2671
3575.9147	 93.2901
3576.3807	 93.3125
3576.8466	 93.3344
3577.3125	 93.3556
3577.7784	 93.3761
3578.2443	 93.3958
3578.7102	 93.4147
3579.1762	 93.4326
3579.6421	 93.4495
3580.1080	 93.4653
3580.5739	 93.4800
3581.0398	 93.4934
3581.5057	 93.5054
3581.9717	 93.5161
3582.4376	 93.5253
3582.9035	 93.5330
3583.3694	 93.5392
3583.8353	 93.5439
3584.3012	 93.5472
3584.7672	 93.5491
3585.2331	 93.5497
3585.6990	 93.5491
3586.1649	 93.5475
3586.6308	 93.5451
3587.0968	 93.5421
3587.5627	 93.5388
3588.0286	 93.5353
3588.4945	 93.5320
3588.9604	 93.5292
3589.4263	 93.5270
3589.8923	 93.5256
3590.3582	 93.5254
3590.8241	 93.5265
3591.2900	 93.5290
3591.7559	 93.5330
3592.2218	 93.5386
3592.6878	 93.5458
3593.1537	 93.5545
3593.6196	 93.5648
3594.0855	 93.5765
3594.5514	 93.5895
3595.0173	 93.6035
3595.4833	 93.6185
3595.9492	 93.6343
3596.4151	 93.6505
3596.8810	 93.6670
3597.3469	 93.6837
3597.8128	 93.7002
3598.2788	 93.7164
3598.7447	 93.7321
3599.2106	 93.7472
3599.6765	 93.7614
3600.1424	 93.7747
3600.6084	 93.7870
3601.0743	 93.7982
3601.5402	 93.8083
3602.0061	 93.8172
3602.4720	 93.8250
3602.9379	 93.8318
3603.4039	 93.8375
3603.8698	 93.8423
3604.3357	 93.8462
3604.8016	 93.8496
3605.2675	 93.8524
3605.7334	 93.8548
3606.1994	 93.8571
3606.6653	 93.8593
3607.1312	 93.8617
3607.5971	 93.8645
3608.0630	 93.8676
3608.5289	 93.8714
3608.9949	 93.8759
3609.4608	 93.8811
3609.9267	 93.8871
3610.3926	 93.8939
3610.8585	 93.9015
3611.3244	 93.9098
3611.7904	 93.9188
3612.2563	 93.9283
3612.7222	 93.9381
3613.1881	 93.9482
3613.6540	 93.9584
3614.1200	 93.9686
3614.5859	 93.9784
3615.0518	 93.9879
3615.5177	 93.9968
3615.9836	 94.0050
3616.4495	 94.0125
3616.9155	 94.0190
3617.3814	 94.0245
3617.8473	 94.0289
3618.3132	 94.0322
3618.7791	 94.0344
3619.2450	 94.0355
3619.7110	 94.0354
3620.1769	 94.0343
3620.6428	 94.0321
3621.1087	 94.0290
3621.5746	 94.0250
3622.0405	 94.0202
3622.5065	 94.0148
3622.9724	 94.0089
3623.4383	 94.0027
3623.9042	 93.9963
3624.3701	 93.9899
3624.8360	 93.9838
3625.3020	 93.9781
3625.7679	 93.9730
3626.2338	 93.9687
3626.6997	 93.9655
3627.1656	 93.9636
3627.6316	 93.9630
3628.0975	 93.9641
3628.5634	 93.9669
3629.0293	 93.9715
3629.4952	 93.9781
3629.9611	 93.9866
3630.4271	 93.9972
3630.8930	 94.0098
3631.3589	 94.0243
3631.8248	 94.0408
3632.2907	 94.0591
3632.7566	 94.0791
3633.2226	 94.1006
3633.6885	 94.1236
3634.1544	 94.1478
3634.6203	 94.1731
3635.0862	 94.1993
3635.5521	 94.2262
3636.0181	 94.2536
3636.4840	 94.2812
3636.9499	 94.3089
3637.4158	 94.3364
3637.8817	 94.3634
3638.3476	 94.3898
3638.8136	 94.4153
3639.2795	 94.4396
3639.7454	 94.4624
3640.2113	 94.4835
3640.6772	 94.5026
3641.1431	 94.5194
3641.6091	 94.5336
3642.0750	 94.5450
3642.5409	 94.5534
3643.0068	 94.5585
3643.4727	 94.5601
3643.9387	 94.5582
3644.4046	 94.5526
3644.8705	 94.5435
3645.3364	 94.5309
3645.8023	 94.5150
3646.2682	 94.4962
3646.7342	 94.4750
3647.2001	 94.4519
3647.6660	 94.4275
3648.1319	 94.4027
3648.5978	 94.3782
3649.0637	 94.3550
3649.5297	 94.3338
3649.9956	 94.3154
3650.4615	 94.3006
3650.9274	 94.2898
3651.3933	 94.2835
3651.8592	 94.2820
3652.3252	 94.2854
3652.7911	 94.2935
3653.2570	 94.3063
3653.7229	 94.3233
3654.1888	 94.3443
3654.6547	 94.3685
3655.1207	 94.3957
3655.5866	 94.4251
3656.0525	 94.4563
3656.5184	 94.4886
3656.9843	 94.5216
3657.4503	 94.5548
3657.9162	 94.5878
3658.3821	 94.6200
3658.8480	 94.6511
3659.3139	 94.6809
3659.7798	 94.7089
3660.2458	 94.7349
3660.7117	 94.7587
3661.1776	 94.7801
3661.6435	 94.7989
3662.1094	 94.8150
3662.5753	 94.8281
3663.0413	 94.8384
3663.5072	 94.8455
3663.9731	 94.8497
3664.4390	 94.8507
3664.9049	 94.8487
3665.3708	 94.8438
3665.8368	 94.8361
3666.3027	 94.8257
3666.7686	 94.8128
3667.2345	 94.7978
3667.7004	 94.7811
3668.1663	 94.7629
3668.6323	 94.7437
3669.0982	 94.7241
3669.5641	 94.7045
3670.0300	 94.6855
3670.4959	 94.6676
3670.9619	 94.6513
3671.4278	 94.6371
3671.8937	 94.6252
3672.3596	 94.6161
3672.8255	 94.6099
3673.2914	 94.6067
3673.7574	 94.6064
3674.2233	 94.6090
3674.6892	 94.6142
3675.1551	 94.6218
3675.6210	 94.6313
3676.0869	 94.6425
3676.5529	 94.6549
3677.0188	 94.6682
3677.4847	 94.6819
3677.9506	 94.6958
3678.4165	 94.7093
3678.8824	 94.7223
3679.3484	 94.7344
3679.8143	 94.7454
3680.2802	 94.7550
3680.7461	 94.7632
3681.2120	 94.7697
3681.6779	 94.7744
3682.1439	 94.7772
3682.6098	 94.7781
3683.0757	 94.7770
3683.5416	 94.7740
3684.0075	 94.7690
3684.4735	 94.7622
3684.9394	 94.7536
3685.4053	 94.7433
3685.8712	 94.7316
3686.3371	 94.7186
3686.8030	 94.7046
3687.2690	 94.6897
3687.7349	 94.6744
3688.2008	 94.6590
3688.6667	 94.6436
3689.1326	 94.6288
3689.5985	 94.6149
3690.0645	 94.6021
3690.5304	 94.5908
3690.9963	 94.5812
3691.4622	 94.5737
3691.9281	 94.5683
3692.3940	 94.5654
3692.8600	 94.5648
3693.3259	 94.5667
3693.7918	 94.5711
3694.2577	 94.5779
3694.7236	 94.5869
3695.1895	 94.5980
3695.6555	 94.6110
3696.1214	 94.6257
3696.5873	 94.6417
3697.0532	 94.6588
3697.5191	 94.6767
3697.9851	 94.6951
3698.4510	 94.7136
3698.9169	 94.7320
3699.3828	 94.7498
3699.8487	 94.7670
3700.3146	 94.7830
3700.7806	 94.7977
3701.2465	 94.8107
3701.7124	 94.8219
3702.1783	 94.8310
3702.6442	 94.8378
3703.1101	 94.8422
3703.5761	 94.8441
3704.0420	 94.8432
3704.5079	 94.8398
3704.9738	 94.8336
3705.4397	 94.8249
3705.9056	 94.8137
3706.3716	 94.8002
3706.8375	 94.7846
3707.3034	 94.7672
3707.7693	 94.7485
3708.2352	 94.7286
3708.7011	 94.7082
3709.1671	 94.6875
3709.6330	 94.6670
3710.0989	 94.6472
3710.5648	 94.6285
3711.0307	 94.6113
3711.4967	 94.5959
3711.9626	 94.5825
3712.4285	 94.5715
3712.8944	 94.5629
3713.3603	 94.5569
3713.8262	 94.5534
3714.2922	 94.5524
3714.7581	 94.5538
3715.2240	 94.5574
3715.6899	 94.5630
3716.1558	 94.5704
3716.6217	 94.5793
3717.0877	 94.5894
3717.5536	 94.6005
3718.0195	 94.6122
3718.4854	 94.6244
3718.9513	 94.6366
3719.4172	 94.6487
3719.8832	 94.6605
3720.3491	 94.6717
3720.8150	 94.6821
3721.2809	 94.6917
3721.7468	 94.7003
3722.2127	 94.7078
3722.6787	 94.7142
3723.1446	 94.7193
3723.6105	 94.7232
3724.0764	 94.7259
3724.5423	 94.7275
3725.0083	 94.7279
3725.4742	 94.7273
3725.9401	 94.7257
3726.4060	 94.7233
3726.8719	 94.7202
3727.3378	 94.7166
3727.8038	 94.7125
3728.2697	 94.7081
3728.7356	 94.7035
3729.2015	 94.6990
3729.6674	 94.6945
3730.1333	 94.6902
3730.5993	 94.6863
3731.0652	 94.6827
3731.5311	 94.6795
3731.9970	 94.6768
3732.4629	 94.6746
3732.9288	 94.6727
3733.3948	 94.6713
3733.8607	 94.6702
3734.3266	 94.6694
3734.7925	 94.6687
3735.2584	 94.6681
3735.7243	 94.6674
3736.1903	 94.6666
3736.6562	 94.6654
3737.1221	 94.6639
3737.5880	 94.6617
3738.0539	 94.6589
3738.5199	 94.6553
3738.9858	 94.6507
3739.4517	 94.6451
3739.9176	 94.6385
3740.3835	 94.6306
3740.8494	 94.6214
3741.3154	 94.6110
3741.7813	 94.5991
3742.2472	 94.5860
3742.7131	 94.5714
3743.1790	 94.5556
3743.6449	 94.5384
3744.1109	 94.5202
3744.5768	 94.5008
3745.0427	 94.4806
3745.5086	 94.4597
3745.9745	 94.4383
3746.4404	 94.4167
3746.9064	 94.3950
3747.3723	 94.3736
3747.8382	 94.3528
3748.3041	 94.3327
3748.7700	 94.3137
3749.2359	 94.2960
3749.7019	 94.2797
3750.1678	 94.2652
3750.6337	 94.2525
3751.0996	 94.2418
3751.5655	 94.2330
3752.0315	 94.2263
3752.4974	 94.2216
3752.9633	 94.2189
3753.4292	 94.2180
3753.8951	 94.2189
3754.3610	 94.2214
3754.8270	 94.2254
3755.2929	 94.2307
3755.7588	 94.2371
3756.2247	 94.2443
3756.6906	 94.2523
3757.1565	 94.2607
3757.6225	 94.2694
3758.0884	 94.2782
3758.5543	 94.2870
3759.0202	 94.2954
3759.4861	 94.3034
3759.9520	 94.3108
3760.4180	 94.3175
3760.8839	 94.3234
3761.3498	 94.3283
3761.8157	 94.3322
3762.2816	 94.3350
3762.7475	 94.3367
3763.2135	 94.3373
3763.6794	 94.3368
3764.1453	 94.3352
3764.6112	 94.3325
3765.0771	 94.3290
3765.5431	 94.3245
3766.0090	 94.3193
3766.4749	 94.3135
3766.9408	 94.3072
3767.4067	 94.3005
3767.8726	 94.2936
3768.3386	 94.2865
3768.8045	 94.2795
3769.2704	 94.2727
3769.7363	 94.2661
3770.2022	 94.2598
3770.6681	 94.2540
3771.1341	 94.2486
3771.6000	 94.2437
3772.0659	 94.2394
3772.5318	 94.2356
3772.9977	 94.2323
3773.4636	 94.2296
3773.9296	 94.2273
3774.3955	 94.2254
3774.8614	 94.2240
3775.3273	 94.2229
3775.7932	 94.2222
3776.2591	 94.2218
3776.7251	 94.2216
3777.1910	 94.2218
3777.6569	 94.2224
3778.1228	 94.2232
3778.5887	 94.2245
3779.0546	 94.2262
3779.5206	 94.2285
3779.9865	 94.2313
3780.4524	 94.2348
3780.9183	 94.2391
3781.3842	 94.2442
3781.8502	 94.2502
3782.3161	 94.2572
3782.7820	 94.2652
3783.2479	 94.2743
3783.7138	 94.2844
3784.1797	 94.2956
3784.6457	 94.3078
3785.1116	 94.3209
3785.5775	 94.3348
3786.0434	 94.3494
3786.5093	 94.3645
3786.9752	 94.3800
3787.4412	 94.3956
3787.9071	 94.4112
3788.3730	 94.4264
3788.8389	 94.4410
3789.3048	 94.4548
3789.7707	 94.4674
3790.2367	 94.4787
3790.7026	 94.4882
3791.1685	 94.4958
3791.6344	 94.5012
3792.1003	 94.5041
3792.5662	 94.5044
3793.0322	 94.5019
3793.4981	 94.4965
3793.9640	 94.4880
3794.4299	 94.4764
3794.8958	 94.4619
3795.3618	 94.4443
3795.8277	 94.4240
3796.2936	 94.4012
3796.7595	 94.3762
3797.2254	 94.3494
3797.6913	 94.3212
3798.1573	 94.2923
3798.6232	 94.2631
3799.0891	 94.2344
3799.5550	 94.2066
3800.0209	 94.1804
3800.4868	 94.1564
3800.9528	 94.1351
3801.4187	 94.1168
3801.8846	 94.1021
3802.3505	 94.0909
3802.8164	 94.0836
3803.2823	 94.0801
3803.7483	 94.0803
3804.2142	 94.0841
3804.6801	 94.0911
3805.1460	 94.1009
3805.6119	 94.1133
3806.0778	 94.1278
3806.5438	 94.1439
3807.0097	 94.1611
3807.4756	 94.1790
3807.9415	 94.1972
3808.4074	 94.2151
3808.8734	 94.2324
3809.3393	 94.2487
3809.8052	 94.2636
3810.2711	 94.2769
3810.7370	 94.2883
3811.2029	 94.2976
3811.6689	 94.3046
3812.1348	 94.3091
3812.6007	 94.3112
3813.0666	 94.3107
3813.5325	 94.3077
3813.9984	 94.3023
3814.4644	 94.2946
3814.9303	 94.2848
3815.3962	 94.2732
3815.8621	 94.2601
3816.3280	 94.2457
3816.7939	 94.2305
3817.2599	 94.2149
3817.7258	 94.1992
3818.1917	 94.1840
3818.6576	 94.1695
3819.1235	 94.1561
3819.5894	 94.1442
3820.0554	 94.1341
3820.5213	 94.1258
3820.9872	 94.1197
3821.4531	 94.1157
3821.9190	 94.1138
3822.3850	 94.1140
3822.8509	 94.1162
3823.3168	 94.1203
3823.7827	 94.1259
3824.2486	 94.1329
3824.7145	 94.1411
3825.1805	 94.1502
3825.6464	 94.1598
3826.1123	 94.1699
3826.5782	 94.1800
3827.0441	 94.1900
3827.5100	 94.1997
3827.9760	 94.2088
3828.4419	 94.2172
3828.9078	 94.2247
3829.3737	 94.2311
3829.8396	 94.2364
3830.3055	 94.2405
3830.7715	 94.2433
3831.2374	 94.2449
3831.7033	 94.2452
3832.1692	 94.2442
3832.6351	 94.2420
3833.1010	 94.2388
3833.5670	 94.2345
3834.0329	 94.2295
3834.4988	 94.2238
3834.9647	 94.2177
3835.4306	 94.2112
3835.8966	 94.2047
3836.3625	 94.1982
3836.8284	 94.1920
3837.2943	 94.1861
3837.7602	 94.1808
3838.2261	 94.1761
3838.6921	 94.1721
3839.1580	 94.1688
3839.6239	 94.1663
3840.0898	 94.1644
3840.5557	 94.1632
3841.0216	 94.1625
3841.4876	 94.1623
3841.9535	 94.1624
3842.4194	 94.1627
3842.8853	 94.1630
3843.3512	 94.1632
3843.8171	 94.1632
3844.2831	 94.1627
3844.7490	 94.1617
3845.2149	 94.1600
3845.6808	 94.1575
3846.1467	 94.1540
3846.6126	 94.1496
3847.0786	 94.1441
3847.5445	 94.1375
3848.0104	 94.1298
3848.4763	 94.1210
3848.9422	 94.1112
3849.4082	 94.1004
3849.8741	 94.0888
3850.3400	 94.0765
3850.8059	 94.0638
3851.2718	 94.0507
3851.7377	 94.0377
3852.2037	 94.0248
3852.6696	 94.0124
3853.1355	 94.0007
3853.6014	 93.9901
3854.0673	 93.9806
3854.5332	 93.9725
3854.9992	 93.9661
3855.4651	 93.9613
3855.9310	 93.9583
3856.3969	 93.9572
3856.8628	 93.9578
3857.3287	 93.9602
3857.7947	 93.9643
3858.2606	 93.9698
3858.7265	 93.9767
3859.1924	 93.9847
3859.6583	 93.9936
3860.1242	 94.0032
3860.5902	 94.0132
3861.0561	 94.0234
3861.5220	 94.0335
3861.9879	 94.0434
3862.4538	 94.0528
3862.9198	 94.0614
3863.3857	 94.0692
3863.8516	 94.0759
3864.3175	 94.0815
3864.7834	 94.0858
3865.2493	 94.0887
3865.7153	 94.0902
3866.1812	 94.0904
3866.6471	 94.0891
3867.1130	 94.0866
3867.5789	 94.0828
3868.0448	 94.0779
3868.5108	 94.0720
3868.9767	 94.0653
3869.4426	 94.0580
3869.9085	 94.0503
3870.3744	 94.0423
3870.8403	 94.0343
3871.3063	 94.0264
3871.7722	 94.0189
3872.2381	 94.0118
3872.7040	 94.0054
3873.1699	 93.9997
3873.6358	 93.9948
3874.1018	 93.9907
3874.5677	 93.9875
3875.0336	 93.9852
3875.4995	 93.9838
3875.9654	 93.9831
3876.4314	 93.9831
3876.8973	 93.9837
3877.3632	 93.9848
3877.8291	 93.9863
3878.2950	 93.9881
3878.7609	 93.9900
3879.2269	 93.9920
3879.6928	 93.9940
3880.1587	 93.9958
3880.6246	 93.9974
3881.0905	 93.9988
3881.5564	 93.9998
3882.0224	 94.0007
3882.4883	 94.0012
3882.9542	 94.0014
3883.4201	 94.0015
3883.8860	 94.0014
3884.3519	 94.0012
3884.8179	 94.0010
3885.2838	 94.0008
3885.7497	 94.0007
3886.2156	 94.0007
3886.6815	 94.0010
3887.1474	 94.0015
3887.6134	 94.0022
3888.0793	 94.0031
3888.5452	 94.0043
3889.0111	 94.0055
3889.4770	 94.0068
3889.9430	 94.0080
3890.4089	 94.0090
3890.8748	 94.0097
3891.3407	 94.0099
3891.8066	 94.0095
3892.2725	 94.0082
3892.7385	 94.0060
3893.2044	 94.0026
3893.6703	 93.9980
3894.1362	 93.9920
3894.6021	 93.9845
3895.0680	 93.9755
3895.5340	 93.9649
3895.9999	 93.9527
3896.4658	 93.9390
3896.9317	 93.9240
3897.3976	 93.9078
3897.8635	 93.8906
3898.3295	 93.8727
3898.7954	 93.8545
3899.2613	 93.8363
3899.7272	 93.8185
3900.1931	 93.8015
3900.6590	 93.7857
3901.1250	 93.7716
3901.5909	 93.7594
3902.0568	 93.7497
3902.5227	 93.7425
3902.9886	 93.7382
3903.4546	 93.7368
3903.9205	 93.7385
3904.3864	 93.7432
3904.8523	 93.7508
3905.3182	 93.7611
3905.7841	 93.7739
3906.2501	 93.7890
3906.7160	 93.8059
3907.1819	 93.8244
3907.6478	 93.8440
3908.1137	 93.8643
3908.5796	 93.8849
3909.0456	 93.9055
3909.5115	 93.9257
3909.9774	 93.9451
3910.4433	 93.9634
3910.9092	 93.9803
3911.3751	 93.9956
3911.8411	 94.0090
3912.3070	 94.0204
3912.7729	 94.0296
3913.2388	 94.0366
3913.7047	 94.0412
3914.1706	 94.0435
3914.6366	 94.0435
3915.1025	 94.0414
3915.5684	 94.0371
3916.0343	 94.0310
3916.5002	 94.0231
3916.9661	 94.0138
3917.4321	 94.0032
3917.8980	 93.9917
3918.3639	 93.9796
3918.8298	 93.9670
3919.2957	 93.9544
3919.7617	 93.9420
3920.2276	 93.9301
3920.6935	 93.9188
3921.1594	 93.9085
3921.6253	 93.8992
3922.0912	 93.8912
3922.5572	 93.8844
3923.0231	 93.8789
3923.4890	 93.8747
3923.9549	 93.8718
3924.4208	 93.8700
3924.8867	 93.8692
3925.3527	 93.8693
3925.8186	 93.8701
3926.2845	 93.8715
3926.7504	 93.8732
3927.2163	 93.8752
3927.6822	 93.8772
3928.1482	 93.8791
3928.6141	 93.8808
3929.0800	 93.8822
3929.5459	 93.8831
3930.0118	 93.8836
3930.4777	 93.8836
3930.9437	 93.8832
3931.4096	 93.8822
3931.8755	 93.8808
3932.3414	 93.8790
3932.8073	 93.8769
3933.2733	 93.8745
3933.7392	 93.8720
3934.2051	 93.8694
3934.6710	 93.8667
3935.1369	 93.8641
3935.6028	 93.8616
3936.0688	 93.8593
3936.5347	 93.8571
3937.0006	 93.8551
3937.4665	 93.8533
3937.9324	 93.8517
3938.3983	 93.8502
3938.8643	 93.8488
3939.3302	 93.8474
3939.7961	 93.8460
3940.2620	 93.8444
3940.7279	 93.8426
3941.1938	 93.8406
3941.6598	 93.8382
3942.1257	 93.8354
3942.5916	 93.8322
3943.0575	 93.8285
3943.5234	 93.8243
3943.9893	 93.8196
3944.4553	 93.8144
3944.9212	 93.8089
3945.3871	 93.8030
3945.8530	 93.7969
3946.3189	 93.7906
3946.7849	 93.7844
3947.2508	 93.7782
3947.7167	 93.7723
3948.1826	 93.7667
3948.6485	 93.7617
3949.1144	 93.7573
3949.5804	 93.7537
3950.0463	 93.7510
3950.5122	 93.7491
3950.9781	 93.7483
3951.4440	 93.7485
3951.9099	 93.7497
3952.3759	 93.7519
3952.8418	 93.7551
3953.3077	 93.7593
3953.7736	 93.7643
3954.2395	 93.7700
3954.7054	 93.7764
3955.1714	 93.7833
3955.6373	 93.7906
3956.1032	 93.7982
3956.5691	 93.8059
3957.0350	 93.8136
3957.5009	 93.8212
3957.9669	 93.8285
3958.4328	 93.8356
3958.8987	 93.8422
3959.3646	 93.8483
3959.8305	 93.8538
3960.2965	 93.8588
3960.7624	 93.8632
3961.2283	 93.8669
3961.6942	 93.8701
3962.1601	 93.8726
3962.6260	 93.8746
3963.0920	 93.8760
3963.5579	 93.8770
3964.0238	 93.8775
3964.4897	 93.8776
3964.9556	 93.8774
3965.4215	 93.8769
3965.8875	 93.8761
3966.3534	 93.8752
3966.8193	 93.8740
3967.2852	 93.8727
3967.7511	 93.8713
3968.2170	 93.8698
3968.6830	 93.8681
3969.1489	 93.8663
3969.6148	 93.8644
3970.0807	 93.8623
3970.5466	 93.8601
3971.0125	 93.8577
3971.4785	 93.8552
3971.9444	 93.8525
3972.4103	 93.8497
3972.8762	 93.8467
3973.3421	 93.8435
3973.8081	 93.8402
3974.2740	 93.8369
3974.7399	 93.8335
3975.2058	 93.8300
3975.6717	 93.8267
3976.1376	 93.8234
3976.6036	 93.8202
3977.0695	 93.8172
3977.5354	 93.8145
3978.0013	 93.8120
3978.4672	 93.8098
3978.9331	 93.8080
3979.3991	 93.8066
3979.8650	 93.8054
3980.3309	 93.8047
3980.7968	 93.8042
3981.2627	 93.8041
3981.7286	 93.8042
3982.1946	 93.8046
3982.6605	 93.8051
3983.1264	 93.8056
3983.5923	 93.8062
3984.0582	 93.8067
3984.5241	 93.8071
3984.9901	 93.8073
3985.4560	 93.8073
3985.9219	 93.8069
3986.3878	 93.8062
3986.8537	 93.8052
3987.3197	 93.8037
3987.7856	 93.8019
3988.2515	 93.7998
3988.7174	 93.7973
3989.1833	 93.7945
3989.6492	 93.7915
3990.1152	 93.7884
3990.5811	 93.7852
3991.0470	 93.7821
3991.5129	 93.7790
3991.9788	 93.7761
3992.4447	 93.7736
3992.9107	 93.7713
3993.3766	 93.7695
3993.8425	 93.7681
3994.3084	 93.7673
3994.7743	 93.7669
3995.2402	 93.7671
3995.7062	 93.7678
3996.1721	 93.7689
3996.6380	 93.7704
3997.1039	 93.7723
3997.5698	 93.7743
3998.0357	 93.7766
3998.5017	 93.7788
3998.9676	 93.7810
3999.4335	 93.7829
3999.8994	 93.7846
